"System Time Index";"BVP Data"
"1530209828118";"-1.0"
"1530209828118";"-2.0"
"1530209828139";"-3.0"
"1530209828139";"-4.0"
"1530209828139";"-5.0"
"1530209828160";"-6.0"
"1530209828160";"-7.0"
"1530209828181";"-8.0"
"1530209828181";"-9.0"
"1530209828181";"-10.0"
"1530209828181";"-11.0"
"1530209828181";"-12.0"
"1530209828202";"-13.0"
"1530209828202";"-14.0"
"1530209828202";"-15.0"
"1530209828202";"-16.0"
"1530209828223";"-17.0"
"1530209828223";"-18.0"
"1530209828223";"-19.0"
"1530209828223";"-20.0"
"1530209828244";"-21.0"
"1530209828244";"-22.0"
"1530209828245";"-23.0"
"1530209828245";"-24.0"
"1530209828266";"-23.0"
"1530209828286";"-22.0"
"1530209828307";"-21.0"
"1530209828308";"-20.0"
"1530209828349";"-19.0"
"1530209828372";"-20.0"
"1530209828378";"-21.0"
"1530209828399";"-22.0"
"1530209828399";"-23.0"
"1530209828399";"-24.0"
"1530209828399";"-25.0"
"1530209828400";"-26.0"
"1530209828420";"-27.0"
"1530209828420";"-28.0"
"1530209828420";"-27.0"
"1530209828441";"-26.0"
"1530209828442";"-25.0"
"1530209828442";"-23.0"
"1530209828462";"-21.0"
"1530209828463";"-19.0"
"1530209828463";"-16.0"
"1530209828463";"-13.0"
"1530209828463";"-10.0"
"1530209828463";"-7.0"
"1530209828463";"-3.0"
"1530209828463";"0.0"
"1530209828463";"3.0"
"1530209828484";"4.0"
"1530209828526";"5.0"
"1530209828546";"6.0"
"1530209828567";"7.0"
"1530209828609";"8.0"
"1530209828614";"9.0"
"1530209828656";"10.0"
"1530209828698";"11.0"
"1530209828719";"9.0"
"1530209828720";"7.0"
"1530209828720";"5.0"
"1530209828720";"2.0"
"1530209828720";"0.0"
"1530209828740";"-2.0"
"1530209828740";"-4.0"
"1530209828741";"-6.0"
"1530209828741";"-8.0"
"1530209828761";"-11.0"
"1530209828762";"-13.0"
"1530209828762";"-15.0"
"1530209828762";"-17.0"
"1530209828762";"-19.0"
"1530209828762";"-21.0"
"1530209828762";"-22.0"
"1530209828763";"-24.0"
"1530209828783";"-25.0"
"1530209828784";"-27.0"
"1530209828784";"-28.0"
"1530209828784";"-29.0"
"1530209828784";"-30.0"
"1530209828784";"-32.0"
"1530209828805";"-33.0"
"1530209828806";"-34.0"
"1530209828806";"-35.0"
"1530209828806";"-36.0"
"1530209828806";"-37.0"
"1530209828827";"-38.0"
"1530209828827";"-39.0"
"1530209828848";"-40.0"
"1530209828869";"-39.0"
"1530209828932";"-38.0"
"1530209828933";"-37.0"
"1530209828933";"-36.0"
"1530209828954";"-35.0"
"1530209828975";"-34.0"
"1530209828976";"-33.0"
"1530209828976";"-32.0"
"1530209828998";"-31.0"
"1530209828998";"-30.0"
"1530209828998";"-29.0"
"1530209828998";"-28.0"
"1530209829019";"-27.0"
"1530209829019";"-26.0"
"1530209829019";"-25.0"
"1530209829040";"-24.0"
"1530209829040";"-23.0"
"1530209829040";"-22.0"
"1530209829061";"-21.0"
"1530209829061";"-20.0"
"1530209829103";"-21.0"
"1530209829124";"-22.0"
"1530209829124";"-23.0"
"1530209829124";"-24.0"
"1530209829146";"-25.0"
"1530209829146";"-26.0"
"1530209829146";"-27.0"
"1530209829146";"-28.0"
"1530209829146";"-29.0"
"1530209829147";"-30.0"
"1530209829182";"-31.0"
"1530209829183";"-32.0"
"1530209829183";"-33.0"
"1530209829183";"-34.0"
"1530209829204";"-35.0"
"1530209829204";"-36.0"
"1530209829204";"-38.0"
"1530209829204";"-39.0"
"1530209829204";"-40.0"
"1530209829204";"-41.0"
"1530209829205";"-42.0"
"1530209829225";"-43.0"
"1530209829225";"-44.0"
"1530209829226";"-45.0"
"1530209829226";"-46.0"
"1530209829226";"-47.0"
"1530209829226";"-48.0"
"1530209829226";"-49.0"
"1530209829226";"-50.0"
"1530209829226";"-51.0"
"1530209829226";"-52.0"
"1530209829261";"-53.0"
"1530209829261";"-54.0"
"1530209829261";"-56.0"
"1530209829282";"-57.0"
"1530209829282";"-58.0"
"1530209829282";"-59.0"
"1530209829282";"-60.0"
"1530209829283";"-61.0"
"1530209829283";"-62.0"
"1530209829283";"-63.0"
"1530209829283";"-64.0"
"1530209829283";"-65.0"
"1530209829303";"-64.0"
"1530209829304";"-63.0"
"1530209829304";"-62.0"
"1530209829304";"-60.0"
"1530209829304";"-58.0"
"1530209829304";"-55.0"
"1530209829304";"-51.0"
"1530209829304";"-47.0"
"1530209829325";"-43.0"
"1530209829325";"-38.0"
"1530209829325";"-32.0"
"1530209829326";"-26.0"
"1530209829326";"-20.0"
"1530209829326";"-14.0"
"1530209829347";"-7.0"
"1530209829347";"-1.0"
"1530209829347";"5.0"
"1530209829348";"11.0"
"1530209829348";"17.0"
"1530209829348";"22.0"
"1530209829389";"23.0"
"1530209829410";"24.0"
"1530209829431";"25.0"
"1530209829452";"26.0"
"1530209829452";"27.0"
"1530209829494";"28.0"
"1530209829515";"29.0"
"1530209829536";"25.0"
"1530209829557";"22.0"
"1530209829557";"19.0"
"1530209829557";"16.0"
"1530209829557";"12.0"
"1530209829557";"9.0"
"1530209829557";"6.0"
"1530209829578";"3.0"
"1530209829578";"0.0"
"1530209829578";"-2.0"
"1530209829578";"-5.0"
"1530209829578";"-7.0"
"1530209829579";"-10.0"
"1530209829579";"-12.0"
"1530209829600";"-15.0"
"1530209829600";"-17.0"
"1530209829600";"-19.0"
"1530209829600";"-21.0"
"1530209829600";"-22.0"
"1530209829600";"-24.0"
"1530209829621";"-25.0"
"1530209829621";"-27.0"
"1530209829621";"-28.0"
"1530209829621";"-29.0"
"1530209829621";"-30.0"
"1530209829642";"-31.0"
"1530209829642";"-32.0"
"1530209829642";"-33.0"
"1530209829663";"-34.0"
"1530209829704";"-35.0"
"1530209829704";"-36.0"
"1530209829725";"-37.0"
"1530209829725";"-38.0"
"1530209829726";"-39.0"
"1530209829726";"-40.0"
"1530209829726";"-41.0"
"1530209829747";"-42.0"
"1530209829747";"-43.0"
"1530209829748";"-44.0"
"1530209829748";"-45.0"
"1530209829748";"-46.0"
"1530209829748";"-47.0"
"1530209829748";"-48.0"
"1530209829769";"-49.0"
"1530209829769";"-51.0"
"1530209829769";"-52.0"
"1530209829770";"-53.0"
"1530209829770";"-54.0"
"1530209829770";"-55.0"
"1530209829790";"-56.0"
"1530209829791";"-58.0"
"1530209829791";"-59.0"
"1530209829791";"-60.0"
"1530209829791";"-61.0"
"1530209829791";"-62.0"
"1530209829791";"-64.0"
"1530209829812";"-65.0"
"1530209829812";"-66.0"
"1530209829812";"-67.0"
"1530209829812";"-68.0"
"1530209829812";"-70.0"
"1530209829812";"-71.0"
"1530209829833";"-72.0"
"1530209829833";"-74.0"
"1530209829833";"-75.0"
"1530209829834";"-76.0"
"1530209829834";"-77.0"
"1530209829855";"-78.0"
"1530209829855";"-80.0"
"1530209829855";"-81.0"
"1530209829855";"-82.0"
"1530209829855";"-83.0"
"1530209829855";"-84.0"
"1530209829876";"-85.0"
"1530209829876";"-86.0"
"1530209829876";"-87.0"
"1530209829877";"-88.0"
"1530209829897";"-89.0"
"1530209829897";"-90.0"
"1530209829940";"-89.0"
"1530209829940";"-88.0"
"1530209829961";"-87.0"
"1530209829961";"-86.0"
"1530209829982";"-85.0"
"1530209829982";"-84.0"
"1530209830003";"-83.0"
"1530209830004";"-82.0"
"1530209830004";"-81.0"
"1530209830004";"-80.0"
"1530209830024";"-79.0"
"1530209830025";"-78.0"
"1530209830025";"-77.0"
"1530209830025";"-76.0"
"1530209830025";"-75.0"
"1530209830025";"-74.0"
"1530209830046";"-73.0"
"1530209830047";"-72.0"
"1530209830047";"-71.0"
"1530209830067";"-70.0"
"1530209830067";"-69.0"
"1530209830068";"-68.0"
"1530209830068";"-67.0"
"1530209830088";"-66.0"
"1530209830089";"-65.0"
"1530209830110";"-64.0"
"1530209830110";"-65.0"
"1530209830134";"-66.0"
"1530209830135";"-67.0"
"1530209830135";"-68.0"
"1530209830155";"-69.0"
"1530209830193";"-68.0"
"1530209830194";"-66.0"
"1530209830214";"-64.0"
"1530209830214";"-61.0"
"1530209830215";"-58.0"
"1530209830240";"-53.0"
"1530209830240";"-48.0"
"1530209830261";"-42.0"
"1530209830261";"-35.0"
"1530209830261";"-27.0"
"1530209830261";"-17.0"
"1530209830261";"-7.0"
"1530209830261";"3.0"
"1530209830262";"15.0"
"1530209830262";"28.0"
"1530209830262";"42.0"
"1530209830262";"47.0"
"1530209830262";"48.0"
"1530209830262";"49.0"
"1530209830283";"50.0"
"1530209830284";"51.0"
"1530209830284";"52.0"
"1530209830284";"53.0"
"1530209830285";"54.0"
"1530209830286";"55.0"
"1530209830286";"56.0"
"1530209830306";"57.0"
"1530209830307";"58.0"
"1530209830307";"59.0"
"1530209830307";"60.0"
"1530209830307";"61.0"
"1530209830307";"62.0"
"1530209830328";"63.0"
"1530209830348";"64.0"
"1530209830349";"65.0"
"1530209830349";"66.0"
"1530209830349";"67.0"
"1530209830349";"68.0"
"1530209830371";"69.0"
"1530209830371";"70.0"
"1530209830392";"71.0"
"1530209830392";"72.0"
"1530209830414";"73.0"
"1530209830414";"74.0"
"1530209830435";"75.0"
"1530209830456";"71.0"
"1530209830456";"65.0"
"1530209830456";"59.0"
"1530209830476";"53.0"
"1530209830477";"48.0"
"1530209830477";"42.0"
"1530209830477";"37.0"
"1530209830477";"32.0"
"1530209830498";"27.0"
"1530209830498";"22.0"
"1530209830498";"18.0"
"1530209830498";"14.0"
"1530209830498";"10.0"
"1530209830498";"6.0"
"1530209830519";"2.0"
"1530209830519";"-1.0"
"1530209830520";"-4.0"
"1530209830520";"-7.0"
"1530209830520";"-10.0"
"1530209830520";"-13.0"
"1530209830520";"-15.0"
"1530209830520";"-18.0"
"1530209830521";"-20.0"
"1530209830521";"-22.0"
"1530209830541";"-24.0"
"1530209830542";"-26.0"
"1530209830542";"-27.0"
"1530209830542";"-29.0"
"1530209830542";"-31.0"
"1530209830542";"-32.0"
"1530209830563";"-33.0"
"1530209830563";"-34.0"
"1530209830563";"-36.0"
"1530209830563";"-37.0"
"1530209830564";"-38.0"
"1530209830584";"-39.0"
"1530209830584";"-40.0"
"1530209830585";"-41.0"
"1530209830605";"-42.0"
"1530209830606";"-43.0"
"1530209830626";"-44.0"
"1530209830648";"-43.0"
"1530209830668";"-42.0"
"1530209830690";"-41.0"
"1530209830690";"-40.0"
"1530209830711";"-39.0"
"1530209830732";"-38.0"
"1530209830732";"-37.0"
"1530209830732";"-36.0"
"1530209830753";"-35.0"
"1530209830753";"-34.0"
"1530209830775";"-33.0"
"1530209830817";"-32.0"
"1530209830838";"-33.0"
"1530209830859";"-34.0"
"1530209830882";"-35.0"
"1530209830924";"-36.0"
"1530209830925";"-37.0"
"1530209830925";"-38.0"
"1530209830925";"-39.0"
"1530209830945";"-40.0"
"1530209830946";"-41.0"
"1530209830946";"-42.0"
"1530209830946";"-43.0"
"1530209830946";"-44.0"
"1530209830946";"-46.0"
"1530209830946";"-47.0"
"1530209830946";"-48.0"
"1530209830967";"-49.0"
"1530209830967";"-50.0"
"1530209830967";"-51.0"
"1530209830988";"-52.0"
"1530209830988";"-54.0"
"1530209830988";"-55.0"
"1530209830988";"-56.0"
"1530209830988";"-57.0"
"1530209830988";"-58.0"
"1530209831009";"-59.0"
"1530209831009";"-60.0"
"1530209831009";"-61.0"
"1530209831030";"-60.0"
"1530209831031";"-59.0"
"1530209831031";"-58.0"
"1530209831031";"-56.0"
"1530209831031";"-53.0"
"1530209831031";"-50.0"
"1530209831031";"-46.0"
"1530209831032";"-42.0"
"1530209831053";"-36.0"
"1530209831053";"-31.0"
"1530209831059";"-24.0"
"1530209831060";"-18.0"
"1530209831060";"-11.0"
"1530209831060";"-4.0"
"1530209831080";"2.0"
"1530209831081";"9.0"
"1530209831081";"16.0"
"1530209831081";"23.0"
"1530209831081";"30.0"
"1530209831081";"37.0"
"1530209831081";"44.0"
"1530209831081";"50.0"
"1530209831081";"56.0"
"1530209831082";"62.0"
"1530209831102";"68.0"
"1530209831102";"73.0"
"1530209831103";"78.0"
"1530209831103";"79.0"
"1530209831123";"80.0"
"1530209831144";"81.0"
"1530209831196";"82.0"
"1530209831197";"83.0"
"1530209831226";"84.0"
"1530209831268";"83.0"
"1530209831268";"81.0"
"1530209831268";"79.0"
"1530209831268";"76.0"
"1530209831268";"74.0"
"1530209831269";"72.0"
"1530209831269";"69.0"
"1530209831269";"67.0"
"1530209831269";"64.0"
"1530209831269";"62.0"
"1530209831269";"59.0"
"1530209831269";"57.0"
"1530209831290";"54.0"
"1530209831290";"52.0"
"1530209831290";"49.0"
"1530209831290";"46.0"
"1530209831291";"44.0"
"1530209831291";"41.0"
"1530209831311";"39.0"
"1530209831312";"36.0"
"1530209831312";"33.0"
"1530209831312";"31.0"
"1530209831312";"28.0"
"1530209831312";"25.0"
"1530209831313";"23.0"
"1530209831333";"20.0"
"1530209831333";"18.0"
"1530209831333";"16.0"
"1530209831334";"13.0"
"1530209831334";"11.0"
"1530209831355";"9.0"
"1530209831355";"7.0"
"1530209831355";"6.0"
"1530209831355";"4.0"
"1530209831356";"2.0"
"1530209831356";"0.0"
"1530209831377";"-2.0"
"1530209831377";"-3.0"
"1530209831378";"-5.0"
"1530209831378";"-6.0"
"1530209831378";"-7.0"
"1530209831399";"-9.0"
"1530209831399";"-10.0"
"1530209831399";"-11.0"
"1530209831399";"-12.0"
"1530209831399";"-13.0"
"1530209831400";"-14.0"
"1530209831400";"-15.0"
"1530209831400";"-16.0"
"1530209831420";"-17.0"
"1530209831420";"-18.0"
"1530209831421";"-19.0"
"1530209831421";"-20.0"
"1530209831421";"-21.0"
"1530209831441";"-22.0"
"1530209831442";"-23.0"
"1530209831462";"-24.0"
"1530209831463";"-25.0"
"1530209831463";"-26.0"
"1530209831463";"-27.0"
"1530209831484";"-28.0"
"1530209831484";"-29.0"
"1530209831484";"-30.0"
"1530209831505";"-31.0"
"1530209831526";"-32.0"
"1530209831548";"-33.0"
"1530209831548";"-34.0"
"1530209831548";"-35.0"
"1530209831548";"-36.0"
"1530209831548";"-37.0"
"1530209831569";"-38.0"
"1530209831569";"-39.0"
"1530209831569";"-40.0"
"1530209831569";"-41.0"
"1530209831569";"-42.0"
"1530209831571";"-43.0"
"1530209831571";"-44.0"
"1530209831571";"-45.0"
"1530209831592";"-46.0"
"1530209831592";"-47.0"
"1530209831592";"-48.0"
"1530209831613";"-49.0"
"1530209831613";"-50.0"
"1530209831613";"-51.0"
"1530209831613";"-52.0"
"1530209831613";"-53.0"
"1530209831613";"-54.0"
"1530209831613";"-55.0"
"1530209831613";"-56.0"
"1530209831634";"-57.0"
"1530209831634";"-58.0"
"1530209831634";"-59.0"
"1530209831634";"-60.0"
"1530209831634";"-61.0"
"1530209831655";"-62.0"
"1530209831655";"-63.0"
"1530209831656";"-64.0"
"1530209831676";"-65.0"
"1530209831676";"-66.0"
"1530209831698";"-67.0"
"1530209831719";"-66.0"
"1530209831740";"-65.0"
"1530209831783";"-66.0"
"1530209831783";"-67.0"
"1530209831804";"-68.0"
"1530209831804";"-69.0"
"1530209831825";"-70.0"
"1530209831825";"-71.0"
"1530209831825";"-72.0"
"1530209831825";"-73.0"
"1530209831825";"-74.0"
"1530209831847";"-75.0"
"1530209831848";"-76.0"
"1530209831848";"-77.0"
"1530209831869";"-78.0"
"1530209831869";"-77.0"
"1530209831890";"-75.0"
"1530209831890";"-74.0"
"1530209831890";"-72.0"
"1530209831890";"-69.0"
"1530209831891";"-66.0"
"1530209831891";"-62.0"
"1530209831891";"-58.0"
"1530209831891";"-53.0"
"1530209831914";"-47.0"
"1530209831914";"-40.0"
"1530209831914";"-33.0"
"1530209831915";"-26.0"
"1530209831915";"-18.0"
"1530209831936";"-10.0"
"1530209831936";"-1.0"
"1530209831936";"6.0"
"1530209831936";"14.0"
"1530209831957";"23.0"
"1530209831957";"31.0"
"1530209831958";"38.0"
"1530209831958";"46.0"
"1530209831958";"54.0"
"1530209831958";"61.0"
"1530209831958";"67.0"
"1530209831979";"74.0"
"1530209831979";"80.0"
"1530209831979";"85.0"
"1530209831979";"90.0"
"1530209831981";"91.0"
"1530209832001";"92.0"
"1530209832022";"93.0"
"1530209832043";"94.0"
"1530209832065";"95.0"
"1530209832086";"96.0"
"1530209832087";"94.0"
"1530209832107";"91.0"
"1530209832108";"88.0"
"1530209832108";"86.0"
"1530209832108";"83.0"
"1530209832108";"80.0"
"1530209832108";"77.0"
"1530209832108";"75.0"
"1530209832129";"72.0"
"1530209832129";"69.0"
"1530209832129";"66.0"
"1530209832129";"63.0"
"1530209832129";"60.0"
"1530209832129";"57.0"
"1530209832150";"53.0"
"1530209832150";"50.0"
"1530209832150";"47.0"
"1530209832176";"44.0"
"1530209832176";"41.0"
"1530209832176";"38.0"
"1530209832176";"35.0"
"1530209832197";"32.0"
"1530209832197";"29.0"
"1530209832197";"26.0"
"1530209832198";"23.0"
"1530209832198";"20.0"
"1530209832198";"18.0"
"1530209832198";"15.0"
"1530209832198";"13.0"
"1530209832198";"11.0"
"1530209832199";"8.0"
"1530209832199";"6.0"
"1530209832199";"5.0"
"1530209832199";"3.0"
"1530209832199";"1.0"
"1530209832220";"0.0"
"1530209832220";"-1.0"
"1530209832220";"-3.0"
"1530209832241";"-4.0"
"1530209832241";"-5.0"
"1530209832241";"-6.0"
"1530209832241";"-7.0"
"1530209832241";"-8.0"
"1530209832241";"-9.0"
"1530209832241";"-10.0"
"1530209832241";"-11.0"
"1530209832242";"-12.0"
"1530209832263";"-13.0"
"1530209832284";"-14.0"
"1530209832304";"-15.0"
"1530209832305";"-16.0"
"1530209832326";"-17.0"
"1530209832347";"-18.0"
"1530209832368";"-19.0"
"1530209832368";"-20.0"
"1530209832392";"-21.0"
"1530209832392";"-22.0"
"1530209832393";"-23.0"
"1530209832414";"-24.0"
"1530209832414";"-25.0"
"1530209832435";"-26.0"
"1530209832435";"-27.0"
"1530209832456";"-28.0"
"1530209832477";"-29.0"
"1530209832519";"-28.0"
"1530209832519";"-27.0"
"1530209832540";"-26.0"
"1530209832541";"-25.0"
"1530209832566";"-24.0"
"1530209832588";"-23.0"
"1530209832610";"-24.0"
"1530209832630";"-25.0"
"1530209832631";"-26.0"
"1530209832653";"-27.0"
"1530209832653";"-28.0"
"1530209832653";"-29.0"
"1530209832653";"-30.0"
"1530209832674";"-31.0"
"1530209832674";"-32.0"
"1530209832675";"-33.0"
"1530209832675";"-34.0"
"1530209832675";"-35.0"
"1530209832697";"-36.0"
"1530209832697";"-37.0"
"1530209832697";"-38.0"
"1530209832697";"-37.0"
"1530209832718";"-36.0"
"1530209832718";"-34.0"
"1530209832718";"-33.0"
"1530209832718";"-31.0"
"1530209832718";"-28.0"
"1530209832739";"-25.0"
"1530209832739";"-22.0"
"1530209832739";"-18.0"
"1530209832740";"-14.0"
"1530209832740";"-10.0"
"1530209832740";"-5.0"
"1530209832740";"0.0"
"1530209832760";"3.0"
"1530209832761";"8.0"
"1530209832761";"13.0"
"1530209832761";"17.0"
"1530209832761";"22.0"
"1530209832761";"27.0"
"1530209832782";"31.0"
"1530209832782";"35.0"
"1530209832783";"40.0"
"1530209832783";"43.0"
"1530209832783";"47.0"
"1530209832783";"51.0"
"1530209832804";"54.0"
"1530209832804";"57.0"
"1530209832805";"60.0"
"1530209832805";"63.0"
"1530209832805";"65.0"
"1530209832805";"68.0"
"1530209832805";"70.0"
"1530209832826";"72.0"
"1530209832826";"74.0"
"1530209832826";"75.0"
"1530209832826";"77.0"
"1530209832826";"78.0"
"1530209832847";"79.0"
"1530209832847";"80.0"
"1530209832849";"81.0"
"1530209832849";"82.0"
"1530209832870";"81.0"
"1530209832870";"80.0"
"1530209832870";"79.0"
"1530209832870";"78.0"
"1530209832870";"77.0"
"1530209832891";"76.0"
"1530209832891";"75.0"
"1530209832891";"73.0"
"1530209832891";"72.0"
"1530209832891";"71.0"
"1530209832891";"69.0"
"1530209832912";"68.0"
"1530209832913";"66.0"
"1530209832913";"64.0"
"1530209832913";"63.0"
"1530209832914";"61.0"
"1530209832914";"59.0"
"1530209832934";"57.0"
"1530209832934";"55.0"
"1530209832935";"53.0"
"1530209832935";"51.0"
"1530209832935";"49.0"
"1530209832935";"47.0"
"1530209832955";"45.0"
"1530209832956";"42.0"
"1530209832956";"40.0"
"1530209832956";"38.0"
"1530209832956";"36.0"
"1530209832956";"34.0"
"1530209832956";"31.0"
"1530209832957";"29.0"
"1530209832957";"27.0"
"1530209832978";"24.0"
"1530209832978";"22.0"
"1530209832978";"20.0"
"1530209832999";"17.0"
"1530209832999";"15.0"
"1530209832999";"13.0"
"1530209832999";"11.0"
"1530209832999";"10.0"
"1530209833000";"8.0"
"1530209833020";"6.0"
"1530209833021";"4.0"
"1530209833021";"3.0"
"1530209833021";"1.0"
"1530209833021";"0.0"
"1530209833021";"-1.0"
"1530209833021";"-2.0"
"1530209833042";"-3.0"
"1530209833042";"-4.0"
"1530209833042";"-5.0"
"1530209833042";"-6.0"
"1530209833045";"-7.0"
"1530209833045";"-8.0"
"1530209833045";"-9.0"
"1530209833066";"-10.0"
"1530209833087";"-11.0"
"1530209833108";"-12.0"
"1530209833108";"-13.0"
"1530209833129";"-14.0"
"1530209833150";"-15.0"
"1530209833150";"-16.0"
"1530209833183";"-17.0"
"1530209833204";"-18.0"
"1530209833204";"-19.0"
"1530209833226";"-20.0"
"1530209833227";"-21.0"
"1530209833227";"-22.0"
"1530209833227";"-23.0"
"1530209833227";"-24.0"
"1530209833247";"-25.0"
"1530209833248";"-26.0"
"1530209833248";"-27.0"
"1530209833248";"-28.0"
"1530209833268";"-29.0"
"1530209833269";"-30.0"
"1530209833269";"-31.0"
"1530209833269";"-32.0"
"1530209833269";"-33.0"
"1530209833269";"-34.0"
"1530209833269";"-35.0"
"1530209833270";"-36.0"
"1530209833290";"-37.0"
"1530209833291";"-38.0"
"1530209833291";"-39.0"
"1530209833291";"-40.0"
"1530209833291";"-41.0"
"1530209833315";"-42.0"
"1530209833315";"-43.0"
"1530209833315";"-44.0"
"1530209833336";"-45.0"
"1530209833336";"-46.0"
"1530209833336";"-47.0"
"1530209833336";"-48.0"
"1530209833336";"-49.0"
"1530209833336";"-50.0"
"1530209833337";"-51.0"
"1530209833357";"-52.0"
"1530209833357";"-53.0"
"1530209833357";"-54.0"
"1530209833378";"-55.0"
"1530209833380";"-56.0"
"1530209833421";"-55.0"
"1530209833422";"-54.0"
"1530209833442";"-53.0"
"1530209833445";"-52.0"
"1530209833445";"-51.0"
"1530209833445";"-50.0"
"1530209833466";"-49.0"
"1530209833466";"-48.0"
"1530209833466";"-47.0"
"1530209833487";"-46.0"
"1530209833487";"-45.0"
"1530209833509";"-44.0"
"1530209833509";"-45.0"
"1530209833531";"-46.0"
"1530209833552";"-47.0"
"1530209833573";"-48.0"
"1530209833574";"-49.0"
"1530209833595";"-48.0"
"1530209833595";"-47.0"
"1530209833595";"-46.0"
"1530209833595";"-45.0"
"1530209833595";"-43.0"
"1530209833617";"-41.0"
"1530209833617";"-38.0"
"1530209833617";"-35.0"
"1530209833617";"-31.0"
"1530209833617";"-27.0"
"1530209833618";"-22.0"
"1530209833638";"-17.0"
"1530209833639";"-11.0"
"1530209833639";"-6.0"
"1530209833639";"0.0"
"1530209833639";"5.0"
"1530209833639";"12.0"
"1530209833660";"18.0"
"1530209833660";"24.0"
"1530209833660";"29.0"
"1530209833661";"35.0"
"1530209833661";"41.0"
"1530209833661";"46.0"
"1530209833661";"51.0"
"1530209833682";"56.0"
"1530209833682";"61.0"
"1530209833682";"66.0"
"1530209833682";"70.0"
"1530209833682";"74.0"
"1530209833703";"78.0"
"1530209833703";"81.0"
"1530209833703";"84.0"
"1530209833703";"87.0"
"1530209833703";"90.0"
"1530209833703";"92.0"
"1530209833703";"94.0"
"1530209833724";"95.0"
"1530209833745";"96.0"
"1530209833789";"94.0"
"1530209833789";"93.0"
"1530209833789";"91.0"
"1530209833789";"90.0"
"1530209833789";"89.0"
"1530209833789";"87.0"
"1530209833810";"86.0"
"1530209833810";"84.0"
"1530209833810";"83.0"
"1530209833810";"81.0"
"1530209833810";"79.0"
"1530209833810";"78.0"
"1530209833810";"76.0"
"1530209833811";"74.0"
"1530209833811";"72.0"
"1530209833831";"70.0"
"1530209833831";"68.0"
"1530209833831";"66.0"
"1530209833831";"64.0"
"1530209833831";"62.0"
"1530209833852";"59.0"
"1530209833852";"57.0"
"1530209833853";"55.0"
"1530209833853";"53.0"
"1530209833873";"50.0"
"1530209833873";"48.0"
"1530209833873";"46.0"
"1530209833873";"43.0"
"1530209833874";"41.0"
"1530209833874";"39.0"
"1530209833874";"36.0"
"1530209833874";"34.0"
"1530209833874";"32.0"
"1530209833874";"29.0"
"1530209833894";"27.0"
"1530209833894";"25.0"
"1530209833915";"23.0"
"1530209833915";"20.0"
"1530209833915";"18.0"
"1530209833915";"16.0"
"1530209833915";"14.0"
"1530209833915";"13.0"
"1530209833936";"11.0"
"1530209833936";"9.0"
"1530209833937";"8.0"
"1530209833937";"7.0"
"1530209833937";"5.0"
"1530209833937";"4.0"
"1530209833959";"3.0"
"1530209833960";"2.0"
"1530209833960";"1.0"
"1530209833960";"0.0"
"1530209833960";"-1.0"
"1530209833960";"-2.0"
"1530209833960";"-3.0"
"1530209833982";"-4.0"
"1530209833982";"-5.0"
"1530209834003";"-6.0"
"1530209834024";"-7.0"
"1530209834024";"-8.0"
"1530209834024";"-9.0"
"1530209834024";"-10.0"
"1530209834048";"-11.0"
"1530209834048";"-12.0"
"1530209834069";"-13.0"
"1530209834090";"-14.0"
"1530209834111";"-15.0"
"1530209834111";"-16.0"
"1530209834152";"-17.0"
"1530209834239";"-18.0"
"1530209834286";"-17.0"
"1530209834286";"-16.0"
"1530209834287";"-15.0"
"1530209834307";"-14.0"
"1530209834328";"-13.0"
"1530209834349";"-12.0"
"1530209834370";"-11.0"
"1530209834393";"-12.0"
"1530209834414";"-13.0"
"1530209834415";"-14.0"
"1530209834415";"-15.0"
"1530209834436";"-16.0"
"1530209834436";"-17.0"
"1530209834436";"-18.0"
"1530209834436";"-19.0"
"1530209834457";"-20.0"
"1530209834457";"-21.0"
"1530209834458";"-22.0"
"1530209834458";"-23.0"
"1530209834458";"-24.0"
"1530209834458";"-25.0"
"1530209834479";"-26.0"
"1530209834479";"-27.0"
"1530209834479";"-28.0"
"1530209834479";"-29.0"
"1530209834500";"-30.0"
"1530209834500";"-29.0"
"1530209834521";"-28.0"
"1530209834521";"-27.0"
"1530209834521";"-26.0"
"1530209834521";"-24.0"
"1530209834521";"-22.0"
"1530209834521";"-19.0"
"1530209834542";"-17.0"
"1530209834542";"-14.0"
"1530209834542";"-11.0"
"1530209834542";"-8.0"
"1530209834543";"-5.0"
"1530209834543";"-2.0"
"1530209834543";"1.0"
"1530209834543";"4.0"
"1530209834564";"7.0"
"1530209834564";"10.0"
"1530209834564";"14.0"
"1530209834564";"17.0"
"1530209834585";"20.0"
"1530209834586";"23.0"
"1530209834587";"26.0"
"1530209834587";"29.0"
"1530209834587";"31.0"
"1530209834587";"34.0"
"1530209834587";"37.0"
"1530209834587";"39.0"
"1530209834587";"41.0"
"1530209834608";"44.0"
"1530209834608";"46.0"
"1530209834608";"48.0"
"1530209834629";"49.0"
"1530209834629";"51.0"
"1530209834629";"52.0"
"1530209834629";"54.0"
"1530209834630";"55.0"
"1530209834630";"56.0"
"1530209834630";"57.0"
"1530209834630";"58.0"
"1530209834630";"59.0"
"1530209834654";"60.0"
"1530209834655";"61.0"
"1530209834676";"60.0"
"1530209834676";"59.0"
"1530209834676";"58.0"
"1530209834697";"57.0"
"1530209834717";"56.0"
"1530209834718";"55.0"
"1530209834718";"54.0"
"1530209834718";"53.0"
"1530209834718";"52.0"
"1530209834718";"51.0"
"1530209834718";"50.0"
"1530209834718";"49.0"
"1530209834739";"48.0"
"1530209834739";"47.0"
"1530209834739";"46.0"
"1530209834739";"45.0"
"1530209834739";"44.0"
"1530209834739";"43.0"
"1530209834739";"42.0"
"1530209834740";"40.0"
"1530209834760";"39.0"
"1530209834760";"38.0"
"1530209834760";"36.0"
"1530209834760";"35.0"
"1530209834761";"33.0"
"1530209834761";"32.0"
"1530209834761";"30.0"
"1530209834783";"28.0"
"1530209834783";"27.0"
"1530209834784";"25.0"
"1530209834784";"24.0"
"1530209834784";"22.0"
"1530209834784";"20.0"
"1530209834805";"19.0"
"1530209834805";"17.0"
"1530209834806";"16.0"
"1530209834806";"14.0"
"1530209834806";"13.0"
"1530209834806";"12.0"
"1530209834827";"10.0"
"1530209834827";"9.0"
"1530209834827";"8.0"
"1530209834827";"7.0"
"1530209834828";"6.0"
"1530209834828";"5.0"
"1530209834848";"4.0"
"1530209834848";"3.0"
"1530209834850";"2.0"
"1530209834850";"1.0"
"1530209834870";"0.0"
"1530209834871";"-1.0"
"1530209834953";"-2.0"
"1530209834995";"-3.0"
"1530209834995";"-4.0"
"1530209835016";"-5.0"
"1530209835037";"-6.0"
"1530209835060";"-7.0"
"1530209835102";"-8.0"
"1530209835124";"-9.0"
"1530209835144";"-10.0"
"1530209835165";"-11.0"
"1530209835166";"-12.0"
"1530209835191";"-13.0"
"1530209835212";"-14.0"
"1530209835212";"-15.0"
"1530209835258";"-16.0"
"1530209835299";"-17.0"
"1530209835320";"-16.0"
"1530209835362";"-17.0"
"1530209835363";"-18.0"
"1530209835384";"-19.0"
"1530209835384";"-20.0"
"1530209835405";"-21.0"
"1530209835405";"-22.0"
"1530209835427";"-23.0"
"1530209835427";"-24.0"
"1530209835427";"-25.0"
"1530209835448";"-26.0"
"1530209835469";"-27.0"
"1530209835469";"-28.0"
"1530209835469";"-27.0"
"1530209835469";"-26.0"
"1530209835490";"-24.0"
"1530209835490";"-23.0"
"1530209835490";"-22.0"
"1530209835490";"-20.0"
"1530209835490";"-18.0"
"1530209835511";"-15.0"
"1530209835511";"-13.0"
"1530209835511";"-10.0"
"1530209835512";"-8.0"
"1530209835512";"-5.0"
"1530209835512";"-2.0"
"1530209835533";"0.0"
"1530209835533";"3.0"
"1530209835535";"6.0"
"1530209835536";"9.0"
"1530209835536";"12.0"
"1530209835536";"15.0"
"1530209835556";"18.0"
"1530209835557";"20.0"
"1530209835557";"23.0"
"1530209835557";"26.0"
"1530209835557";"28.0"
"1530209835557";"31.0"
"1530209835578";"33.0"
"1530209835578";"35.0"
"1530209835578";"37.0"
"1530209835578";"39.0"
"1530209835578";"41.0"
"1530209835578";"43.0"
"1530209835579";"44.0"
"1530209835599";"46.0"
"1530209835600";"47.0"
"1530209835600";"48.0"
"1530209835600";"49.0"
"1530209835600";"50.0"
"1530209835623";"51.0"
"1530209835623";"52.0"
"1530209835624";"53.0"
"1530209835624";"54.0"
"1530209835646";"53.0"
"1530209835667";"52.0"
"1530209835667";"51.0"
"1530209835667";"50.0"
"1530209835667";"49.0"
"1530209835668";"48.0"
"1530209835688";"47.0"
"1530209835688";"46.0"
"1530209835688";"45.0"
"1530209835688";"44.0"
"1530209835689";"43.0"
"1530209835709";"42.0"
"1530209835709";"41.0"
"1530209835711";"40.0"
"1530209835711";"38.0"
"1530209835731";"37.0"
"1530209835731";"36.0"
"1530209835732";"35.0"
"1530209835732";"34.0"
"1530209835732";"33.0"
"1530209835732";"31.0"
"1530209835732";"30.0"
"1530209835753";"29.0"
"1530209835753";"27.0"
"1530209835753";"26.0"
"1530209835754";"24.0"
"1530209835754";"23.0"
"1530209835754";"22.0"
"1530209835754";"20.0"
"1530209835754";"18.0"
"1530209835775";"17.0"
"1530209835775";"16.0"
"1530209835775";"14.0"
"1530209835776";"13.0"
"1530209835797";"12.0"
"1530209835797";"10.0"
"1530209835797";"9.0"
"1530209835798";"8.0"
"1530209835798";"7.0"
"1530209835798";"6.0"
"1530209835798";"5.0"
"1530209835798";"4.0"
"1530209835819";"3.0"
"1530209835819";"2.0"
"1530209835819";"1.0"
"1530209835819";"0.0"
"1530209835841";"-1.0"
"1530209835862";"-2.0"
"1530209835904";"-3.0"
"1530209835927";"-4.0"
"1530209835948";"-5.0"
"1530209835969";"-6.0"
"1530209835969";"-7.0"
"1530209835990";"-8.0"
"1530209836010";"-9.0"
"1530209836010";"-10.0"
"1530209836031";"-11.0"
"1530209836032";"-12.0"
"1530209836054";"-13.0"
"1530209836054";"-14.0"
"1530209836075";"-15.0"
"1530209836075";"-16.0"
"1530209836096";"-17.0"
"1530209836117";"-18.0"
"1530209836118";"-19.0"
"1530209836139";"-20.0"
"1530209836140";"-21.0"
"1530209836235";"-22.0"
"1530209836256";"-21.0"
"1530209836257";"-20.0"
"1530209836257";"-19.0"
"1530209836278";"-20.0"
"1530209836321";"-21.0"
"1530209836342";"-22.0"
"1530209836363";"-23.0"
"1530209836405";"-24.0"
"1530209836405";"-25.0"
"1530209836406";"-26.0"
"1530209836427";"-27.0"
"1530209836427";"-28.0"
"1530209836427";"-29.0"
"1530209836448";"-30.0"
"1530209836448";"-31.0"
"1530209836448";"-32.0"
"1530209836469";"-33.0"
"1530209836469";"-34.0"
"1530209836490";"-35.0"
"1530209836510";"-34.0"
"1530209836511";"-33.0"
"1530209836511";"-32.0"
"1530209836511";"-30.0"
"1530209836511";"-28.0"
"1530209836511";"-25.0"
"1530209836511";"-22.0"
"1530209836532";"-19.0"
"1530209836532";"-15.0"
"1530209836532";"-12.0"
"1530209836532";"-8.0"
"1530209836532";"-4.0"
"1530209836532";"0.0"
"1530209836553";"4.0"
"1530209836553";"8.0"
"1530209836554";"12.0"
"1530209836554";"16.0"
"1530209836554";"21.0"
"1530209836554";"25.0"
"1530209836554";"29.0"
"1530209836555";"33.0"
"1530209836555";"37.0"
"1530209836576";"41.0"
"1530209836578";"44.0"
"1530209836600";"48.0"
"1530209836600";"51.0"
"1530209836600";"54.0"
"1530209836600";"58.0"
"1530209836600";"60.0"
"1530209836600";"63.0"
"1530209836600";"65.0"
"1530209836600";"68.0"
"1530209836601";"70.0"
"1530209836601";"72.0"
"1530209836621";"73.0"
"1530209836621";"75.0"
"1530209836642";"76.0"
"1530209836664";"77.0"
"1530209836685";"76.0"
"1530209836685";"75.0"
"1530209836706";"74.0"
"1530209836706";"72.0"
"1530209836706";"71.0"
"1530209836706";"69.0"
"1530209836708";"68.0"
"1530209836728";"67.0"
"1530209836729";"65.0"
"1530209836729";"64.0"
"1530209836729";"62.0"
"1530209836729";"61.0"
"1530209836729";"59.0"
"1530209836729";"57.0"
"1530209836750";"56.0"
"1530209836750";"54.0"
"1530209836750";"52.0"
"1530209836751";"50.0"
"1530209836751";"48.0"
"1530209836771";"46.0"
"1530209836772";"44.0"
"1530209836772";"42.0"
"1530209836772";"40.0"
"1530209836772";"38.0"
"1530209836772";"36.0"
"1530209836772";"33.0"
"1530209836773";"31.0"
"1530209836773";"29.0"
"1530209836773";"27.0"
"1530209836794";"25.0"
"1530209836794";"23.0"
"1530209836794";"21.0"
"1530209836794";"19.0"
"1530209836794";"17.0"
"1530209836794";"15.0"
"1530209836815";"13.0"
"1530209836815";"12.0"
"1530209836815";"10.0"
"1530209836815";"9.0"
"1530209836815";"7.0"
"1530209836816";"6.0"
"1530209836837";"4.0"
"1530209836837";"3.0"
"1530209836837";"2.0"
"1530209836838";"1.0"
"1530209836838";"0.0"
"1530209836860";"-1.0"
"1530209836860";"-2.0"
"1530209836860";"-3.0"
"1530209836860";"-4.0"
"1530209836860";"-5.0"
"1530209836861";"-6.0"
"1530209836861";"-7.0"
"1530209836881";"-8.0"
"1530209836881";"-9.0"
"1530209836902";"-10.0"
"1530209836902";"-11.0"
"1530209836903";"-12.0"
"1530209836903";"-13.0"
"1530209836924";"-14.0"
"1530209836924";"-15.0"
"1530209836945";"-16.0"
"1530209836966";"-17.0"
"1530209836987";"-18.0"
"1530209836988";"-19.0"
"1530209837008";"-20.0"
"1530209837008";"-21.0"
"1530209837008";"-22.0"
"1530209837029";"-23.0"
"1530209837030";"-24.0"
"1530209837051";"-25.0"
"1530209837051";"-26.0"
"1530209837051";"-27.0"
"1530209837072";"-28.0"
"1530209837072";"-29.0"
"1530209837093";"-30.0"
"1530209837115";"-31.0"
"1530209837116";"-32.0"
"1530209837136";"-33.0"
"1530209837200";"-32.0"
"1530209837221";"-31.0"
"1530209837243";"-30.0"
"1530209837265";"-29.0"
"1530209837265";"-28.0"
"1530209837266";"-27.0"
"1530209837286";"-26.0"
"1530209837307";"-27.0"
"1530209837328";"-28.0"
"1530209837349";"-29.0"
"1530209837350";"-30.0"
"1530209837350";"-31.0"
"1530209837350";"-32.0"
"1530209837370";"-33.0"
"1530209837371";"-34.0"
"1530209837371";"-35.0"
"1530209837392";"-36.0"
"1530209837393";"-37.0"
"1530209837393";"-38.0"
"1530209837413";"-39.0"
"1530209837414";"-40.0"
"1530209837414";"-41.0"
"1530209837414";"-40.0"
"1530209837435";"-39.0"
"1530209837435";"-38.0"
"1530209837435";"-37.0"
"1530209837435";"-35.0"
"1530209837436";"-33.0"
"1530209837457";"-30.0"
"1530209837457";"-28.0"
"1530209837457";"-24.0"
"1530209837458";"-21.0"
"1530209837458";"-17.0"
"1530209837458";"-14.0"
"1530209837478";"-10.0"
"1530209837479";"-6.0"
"1530209837479";"-2.0"
"1530209837479";"2.0"
"1530209837479";"6.0"
"1530209837479";"10.0"
"1530209837500";"14.0"
"1530209837500";"18.0"
"1530209837500";"21.0"
"1530209837500";"25.0"
"1530209837500";"29.0"
"1530209837501";"33.0"
"1530209837501";"36.0"
"1530209837521";"40.0"
"1530209837521";"43.0"
"1530209837522";"46.0"
"1530209837522";"49.0"
"1530209837522";"52.0"
"1530209837542";"54.0"
"1530209837543";"57.0"
"1530209837543";"59.0"
"1530209837543";"61.0"
"1530209837543";"63.0"
"1530209837543";"65.0"
"1530209837543";"66.0"
"1530209837564";"67.0"
"1530209837564";"69.0"
"1530209837564";"70.0"
"1530209837564";"71.0"
"1530209837564";"72.0"
"1530209837565";"73.0"
"1530209837585";"72.0"
"1530209837586";"71.0"
"1530209837606";"70.0"
"1530209837607";"69.0"
"1530209837607";"68.0"
"1530209837607";"67.0"
"1530209837628";"66.0"
"1530209837628";"65.0"
"1530209837628";"64.0"
"1530209837628";"62.0"
"1530209837628";"61.0"
"1530209837628";"60.0"
"1530209837649";"59.0"
"1530209837649";"57.0"
"1530209837670";"56.0"
"1530209837670";"54.0"
"1530209837670";"53.0"
"1530209837670";"51.0"
"1530209837671";"49.0"
"1530209837671";"48.0"
"1530209837671";"46.0"
"1530209837671";"44.0"
"1530209837671";"42.0"
"1530209837671";"40.0"
"1530209837692";"38.0"
"1530209837692";"36.0"
"1530209837692";"34.0"
"1530209837692";"32.0"
"1530209837692";"30.0"
"1530209837692";"28.0"
"1530209837713";"26.0"
"1530209837713";"24.0"
"1530209837713";"22.0"
"1530209837716";"20.0"
"1530209837716";"19.0"
"1530209837716";"17.0"
"1530209837717";"16.0"
"1530209837717";"14.0"
"1530209837737";"13.0"
"1530209837737";"11.0"
"1530209837737";"10.0"
"1530209837738";"9.0"
"1530209837738";"7.0"
"1530209837738";"6.0"
"1530209837738";"5.0"
"1530209837738";"4.0"
"1530209837758";"3.0"
"1530209837779";"2.0"
"1530209837780";"1.0"
"1530209837780";"0.0"
"1530209837781";"-1.0"
"1530209837802";"-2.0"
"1530209837802";"-3.0"
"1530209837823";"-4.0"
"1530209837845";"-5.0"
"1530209837866";"-6.0"
"1530209837887";"-7.0"
"1530209837887";"-8.0"
"1530209837908";"-9.0"
"1530209837909";"-10.0"
"1530209837930";"-11.0"
"1530209837930";"-12.0"
"1530209837930";"-13.0"
"1530209837951";"-14.0"
"1530209837975";"-15.0"
"1530209837976";"-16.0"
"1530209837976";"-17.0"
"1530209837976";"-18.0"
"1530209837976";"-19.0"
"1530209837997";"-20.0"
"1530209837997";"-21.0"
"1530209838018";"-22.0"
"1530209838018";"-23.0"
"1530209838039";"-24.0"
"1530209838039";"-25.0"
"1530209838041";"-26.0"
"1530209838062";"-27.0"
"1530209838062";"-28.0"
"1530209838083";"-29.0"
"1530209838104";"-30.0"
"1530209838107";"-29.0"
"1530209838170";"-30.0"
"1530209838191";"-31.0"
"1530209838253";"-30.0"
"1530209838253";"-29.0"
"1530209838253";"-28.0"
"1530209838274";"-27.0"
"1530209838275";"-26.0"
"1530209838275";"-25.0"
"1530209838296";"-26.0"
"1530209838318";"-27.0"
"1530209838319";"-28.0"
"1530209838319";"-29.0"
"1530209838340";"-30.0"
"1530209838340";"-31.0"
"1530209838340";"-32.0"
"1530209838340";"-33.0"
"1530209838361";"-34.0"
"1530209838362";"-35.0"
"1530209838362";"-36.0"
"1530209838363";"-37.0"
"1530209838363";"-38.0"
"1530209838383";"-37.0"
"1530209838384";"-36.0"
"1530209838384";"-35.0"
"1530209838384";"-33.0"
"1530209838384";"-31.0"
"1530209838384";"-28.0"
"1530209838405";"-24.0"
"1530209838405";"-21.0"
"1530209838405";"-17.0"
"1530209838405";"-12.0"
"1530209838405";"-8.0"
"1530209838405";"-3.0"
"1530209838426";"1.0"
"1530209838426";"5.0"
"1530209838426";"10.0"
"1530209838426";"15.0"
"1530209838426";"20.0"
"1530209838426";"25.0"
"1530209838449";"29.0"
"1530209838449";"34.0"
"1530209838449";"38.0"
"1530209838449";"42.0"
"1530209838450";"46.0"
"1530209838450";"50.0"
"1530209838470";"54.0"
"1530209838470";"57.0"
"1530209838470";"61.0"
"1530209838470";"64.0"
"1530209838471";"66.0"
"1530209838471";"69.0"
"1530209838471";"71.0"
"1530209838471";"73.0"
"1530209838471";"75.0"
"1530209838492";"76.0"
"1530209838535";"77.0"
"1530209838556";"78.0"
"1530209838556";"77.0"
"1530209838577";"76.0"
"1530209838577";"75.0"
"1530209838577";"74.0"
"1530209838577";"73.0"
"1530209838577";"72.0"
"1530209838598";"70.0"
"1530209838598";"69.0"
"1530209838598";"68.0"
"1530209838598";"66.0"
"1530209838599";"65.0"
"1530209838599";"63.0"
"1530209838619";"62.0"
"1530209838620";"60.0"
"1530209838620";"59.0"
"1530209838620";"57.0"
"1530209838620";"56.0"
"1530209838620";"54.0"
"1530209838641";"53.0"
"1530209838641";"51.0"
"1530209838641";"49.0"
"1530209838641";"48.0"
"1530209838641";"46.0"
"1530209838641";"44.0"
"1530209838643";"42.0"
"1530209838664";"41.0"
"1530209838664";"39.0"
"1530209838664";"37.0"
"1530209838664";"35.0"
"1530209838664";"33.0"
"1530209838664";"31.0"
"1530209838664";"30.0"
"1530209838664";"28.0"
"1530209838685";"26.0"
"1530209838685";"24.0"
"1530209838686";"23.0"
"1530209838686";"21.0"
"1530209838706";"19.0"
"1530209838706";"18.0"
"1530209838706";"16.0"
"1530209838707";"14.0"
"1530209838707";"13.0"
"1530209838707";"11.0"
"1530209838707";"10.0"
"1530209838708";"8.0"
"1530209838729";"7.0"
"1530209838729";"5.0"
"1530209838729";"4.0"
"1530209838729";"3.0"
"1530209838729";"1.0"
"1530209838729";"0.0"
"1530209838750";"-1.0"
"1530209838750";"-2.0"
"1530209838750";"-3.0"
"1530209838750";"-4.0"
"1530209838751";"-5.0"
"1530209838771";"-6.0"
"1530209838771";"-7.0"
"1530209838771";"-8.0"
"1530209838771";"-9.0"
"1530209838772";"-10.0"
"1530209838792";"-11.0"
"1530209838792";"-12.0"
"1530209838813";"-13.0"
"1530209838814";"-14.0"
"1530209838835";"-15.0"
"1530209838858";"-16.0"
"1530209838900";"-17.0"
"1530209838942";"-18.0"
"1530209838963";"-19.0"
"1530209838964";"-20.0"
"1530209838985";"-21.0"
"1530209839006";"-22.0"
"1530209839027";"-23.0"
"1530209839090";"-24.0"
"1530209839111";"-23.0"
"1530209839152";"-24.0"
"1530209839194";"-23.0"
"1530209839194";"-22.0"
"1530209839270";"-23.0"
"1530209839271";"-24.0"
"1530209839272";"-25.0"
"1530209839272";"-26.0"
"1530209839272";"-27.0"
"1530209839292";"-28.0"
"1530209839293";"-29.0"
"1530209839293";"-30.0"
"1530209839293";"-31.0"
"1530209839293";"-32.0"
"1530209839293";"-33.0"
"1530209839293";"-34.0"
"1530209839314";"-35.0"
"1530209839315";"-36.0"
"1530209839315";"-37.0"
"1530209839336";"-36.0"
"1530209839336";"-35.0"
"1530209839336";"-33.0"
"1530209839336";"-32.0"
"1530209839357";"-29.0"
"1530209839357";"-27.0"
"1530209839357";"-24.0"
"1530209839357";"-20.0"
"1530209839357";"-17.0"
"1530209839357";"-13.0"
"1530209839378";"-9.0"
"1530209839378";"-5.0"
"1530209839378";"-1.0"
"1530209839379";"2.0"
"1530209839379";"6.0"
"1530209839379";"10.0"
"1530209839400";"14.0"
"1530209839400";"18.0"
"1530209839400";"22.0"
"1530209839401";"26.0"
"1530209839401";"30.0"
"1530209839401";"33.0"
"1530209839422";"37.0"
"1530209839423";"40.0"
"1530209839423";"43.0"
"1530209839423";"46.0"
"1530209839423";"49.0"
"1530209839423";"52.0"
"1530209839423";"54.0"
"1530209839444";"57.0"
"1530209839444";"59.0"
"1530209839444";"61.0"
"1530209839444";"62.0"
"1530209839446";"64.0"
"1530209839466";"65.0"
"1530209839466";"67.0"
"1530209839467";"68.0"
"1530209839467";"69.0"
"1530209839467";"70.0"
"1530209839467";"71.0"
"1530209839488";"70.0"
"1530209839508";"69.0"
"1530209839508";"68.0"
"1530209839509";"67.0"
"1530209839510";"66.0"
"1530209839510";"65.0"
"1530209839510";"64.0"
"1530209839530";"63.0"
"1530209839530";"62.0"
"1530209839530";"61.0"
"1530209839531";"60.0"
"1530209839531";"59.0"
"1530209839531";"57.0"
"1530209839551";"56.0"
"1530209839552";"55.0"
"1530209839552";"54.0"
"1530209839552";"52.0"
"1530209839552";"51.0"
"1530209839552";"50.0"
"1530209839573";"48.0"
"1530209839573";"47.0"
"1530209839573";"45.0"
"1530209839573";"44.0"
"1530209839574";"42.0"
"1530209839575";"41.0"
"1530209839596";"39.0"
"1530209839596";"38.0"
"1530209839596";"36.0"
"1530209839596";"35.0"
"1530209839596";"33.0"
"1530209839596";"32.0"
"1530209839596";"30.0"
"1530209839597";"29.0"
"1530209839617";"27.0"
"1530209839617";"26.0"
"1530209839617";"24.0"
"1530209839617";"23.0"
"1530209839639";"21.0"
"1530209839640";"20.0"
"1530209839640";"19.0"
"1530209839640";"17.0"
"1530209839640";"16.0"
"1530209839640";"14.0"
"1530209839640";"13.0"
"1530209839641";"12.0"
"1530209839641";"10.0"
"1530209839662";"9.0"
"1530209839662";"8.0"
"1530209839662";"6.0"
"1530209839662";"5.0"
"1530209839662";"4.0"
"1530209839662";"3.0"
"1530209839683";"2.0"
"1530209839683";"1.0"
"1530209839683";"0.0"
"1530209839683";"-1.0"
"1530209839704";"-2.0"
"1530209839704";"-3.0"
"1530209839704";"-4.0"
"1530209839704";"-5.0"
"1530209839726";"-6.0"
"1530209839726";"-7.0"
"1530209839747";"-8.0"
"1530209839747";"-9.0"
"1530209839768";"-10.0"
"1530209839790";"-11.0"
"1530209839810";"-12.0"
"1530209839811";"-13.0"
"1530209839831";"-14.0"
"1530209839832";"-15.0"
"1530209839855";"-16.0"
"1530209839856";"-17.0"
"1530209839876";"-18.0"
"1530209839877";"-19.0"
"1530209839897";"-20.0"
"1530209839898";"-21.0"
"1530209839898";"-22.0"
"1530209839918";"-23.0"
"1530209839919";"-24.0"
"1530209839939";"-25.0"
"1530209839961";"-26.0"
"1530209839982";"-27.0"
"1530209840024";"-26.0"
"1530209840045";"-27.0"
"1530209840066";"-28.0"
"1530209840087";"-29.0"
"1530209840131";"-30.0"
"1530209840173";"-31.0"
"1530209840240";"-32.0"
"1530209840241";"-33.0"
"1530209840261";"-34.0"
"1530209840261";"-35.0"
"1530209840261";"-36.0"
"1530209840262";"-37.0"
"1530209840262";"-38.0"
"1530209840262";"-39.0"
"1530209840262";"-40.0"
"1530209840262";"-41.0"
"1530209840262";"-42.0"
"1530209840263";"-43.0"
"1530209840263";"-44.0"
"1530209840263";"-45.0"
"1530209840263";"-46.0"
"1530209840263";"-47.0"
"1530209840284";"-48.0"
"1530209840284";"-49.0"
"1530209840284";"-50.0"
"1530209840284";"-51.0"
"1530209840284";"-52.0"
"1530209840285";"-53.0"
"1530209840285";"-54.0"
"1530209840305";"-55.0"
"1530209840306";"-54.0"
"1530209840307";"-52.0"
"1530209840328";"-51.0"
"1530209840328";"-49.0"
"1530209840328";"-46.0"
"1530209840328";"-43.0"
"1530209840328";"-39.0"
"1530209840328";"-35.0"
"1530209840349";"-31.0"
"1530209840349";"-26.0"
"1530209840349";"-21.0"
"1530209840350";"-16.0"
"1530209840350";"-10.0"
"1530209840350";"-5.0"
"1530209840350";"0.0"
"1530209840350";"6.0"
"1530209840350";"11.0"
"1530209840371";"17.0"
"1530209840371";"22.0"
"1530209840372";"27.0"
"1530209840392";"32.0"
"1530209840394";"37.0"
"1530209840394";"41.0"
"1530209840394";"46.0"
"1530209840394";"50.0"
"1530209840394";"54.0"
"1530209840394";"58.0"
"1530209840395";"62.0"
"1530209840395";"65.0"
"1530209840415";"68.0"
"1530209840415";"71.0"
"1530209840415";"73.0"
"1530209840415";"76.0"
"1530209840436";"77.0"
"1530209840479";"78.0"
"1530209840500";"76.0"
"1530209840500";"75.0"
"1530209840500";"73.0"
"1530209840521";"72.0"
"1530209840521";"70.0"
"1530209840522";"69.0"
"1530209840523";"67.0"
"1530209840523";"65.0"
"1530209840523";"64.0"
"1530209840543";"62.0"
"1530209840543";"60.0"
"1530209840544";"58.0"
"1530209840544";"57.0"
"1530209840544";"55.0"
"1530209840544";"53.0"
"1530209840544";"51.0"
"1530209840544";"49.0"
"1530209840544";"47.0"
"1530209840564";"45.0"
"1530209840565";"43.0"
"1530209840565";"41.0"
"1530209840565";"39.0"
"1530209840565";"37.0"
"1530209840565";"35.0"
"1530209840586";"33.0"
"1530209840586";"31.0"
"1530209840586";"29.0"
"1530209840586";"27.0"
"1530209840586";"25.0"
"1530209840586";"23.0"
"1530209840607";"22.0"
"1530209840607";"20.0"
"1530209840608";"18.0"
"1530209840608";"16.0"
"1530209840608";"15.0"
"1530209840608";"13.0"
"1530209840608";"12.0"
"1530209840629";"10.0"
"1530209840629";"9.0"
"1530209840629";"7.0"
"1530209840629";"6.0"
"1530209840629";"5.0"
"1530209840650";"4.0"
"1530209840650";"2.0"
"1530209840650";"1.0"
"1530209840651";"0.0"
"1530209840651";"-1.0"
"1530209840672";"-2.0"
"1530209840672";"-3.0"
"1530209840672";"-4.0"
"1530209840693";"-5.0"
"1530209840693";"-6.0"
"1530209840694";"-7.0"
"1530209840714";"-8.0"
"1530209840736";"-9.0"
"1530209840757";"-10.0"
"1530209840778";"-11.0"
"1530209840778";"-12.0"
"1530209840798";"-13.0"
"1530209840799";"-14.0"
"1530209840819";"-15.0"
"1530209840820";"-16.0"
"1530209840840";"-17.0"
"1530209840841";"-18.0"
"1530209840862";"-19.0"
"1530209840863";"-20.0"
"1530209840863";"-21.0"
"1530209840883";"-22.0"
"1530209840884";"-23.0"
"1530209840904";"-24.0"
"1530209840905";"-25.0"
"1530209840925";"-26.0"
"1530209840947";"-27.0"
"1530209840968";"-28.0"
"1530209840968";"-29.0"
"1530209841010";"-28.0"
"1530209841031";"-27.0"
"1530209841053";"-26.0"
"1530209841074";"-25.0"
"1530209841095";"-24.0"
"1530209841117";"-25.0"
"1530209841158";"-26.0"
"1530209841180";"-27.0"
"1530209841202";"-26.0"
"1530209841250";"-25.0"
"1530209841250";"-23.0"
"1530209841250";"-21.0"
"1530209841271";"-19.0"
"1530209841271";"-17.0"
"1530209841271";"-14.0"
"1530209841271";"-11.0"
"1530209841271";"-7.0"
"1530209841272";"-4.0"
"1530209841272";"0.0"
"1530209841272";"2.0"
"1530209841273";"6.0"
"1530209841273";"10.0"
"1530209841273";"14.0"
"1530209841273";"18.0"
"1530209841273";"22.0"
"1530209841273";"26.0"
"1530209841273";"30.0"
"1530209841273";"34.0"
"1530209841274";"37.0"
"1530209841294";"41.0"
"1530209841295";"45.0"
"1530209841295";"48.0"
"1530209841295";"51.0"
"1530209841295";"54.0"
"1530209841295";"57.0"
"1530209841295";"60.0"
"1530209841295";"62.0"
"1530209841295";"65.0"
"1530209841295";"67.0"
"1530209841316";"69.0"
"1530209841318";"71.0"
"1530209841319";"73.0"
"1530209841340";"74.0"
"1530209841340";"76.0"
"1530209841340";"77.0"
"1530209841381";"78.0"
"1530209841402";"77.0"
"1530209841402";"76.0"
"1530209841402";"75.0"
"1530209841402";"74.0"
"1530209841402";"73.0"
"1530209841423";"72.0"
"1530209841423";"71.0"
"1530209841423";"70.0"
"1530209841423";"69.0"
"1530209841423";"68.0"
"1530209841423";"67.0"
"1530209841423";"65.0"
"1530209841444";"64.0"
"1530209841444";"63.0"
"1530209841444";"61.0"
"1530209841444";"60.0"
"1530209841445";"58.0"
"1530209841466";"57.0"
"1530209841466";"55.0"
"1530209841466";"54.0"
"1530209841467";"52.0"
"1530209841467";"50.0"
"1530209841467";"49.0"
"1530209841467";"47.0"
"1530209841467";"45.0"
"1530209841467";"44.0"
"1530209841467";"42.0"
"1530209841488";"40.0"
"1530209841488";"39.0"
"1530209841509";"37.0"
"1530209841509";"35.0"
"1530209841509";"33.0"
"1530209841509";"31.0"
"1530209841509";"30.0"
"1530209841509";"28.0"
"1530209841510";"27.0"
"1530209841511";"25.0"
"1530209841511";"24.0"
"1530209841511";"23.0"
"1530209841532";"22.0"
"1530209841532";"20.0"
"1530209841532";"19.0"
"1530209841532";"18.0"
"1530209841532";"17.0"
"1530209841532";"16.0"
"1530209841533";"15.0"
"1530209841553";"14.0"
"1530209841554";"12.0"
"1530209841554";"11.0"
"1530209841554";"10.0"
"1530209841554";"9.0"
"1530209841554";"8.0"
"1530209841575";"7.0"
"1530209841575";"6.0"
"1530209841575";"5.0"
"1530209841575";"4.0"
"1530209841596";"3.0"
"1530209841596";"2.0"
"1530209841596";"1.0"
"1530209841596";"0.0"
"1530209841597";"-1.0"
"1530209841618";"-2.0"
"1530209841618";"-3.0"
"1530209841618";"-4.0"
"1530209841639";"-5.0"
"1530209841639";"-6.0"
"1530209841640";"-7.0"
"1530209841640";"-8.0"
"1530209841640";"-9.0"
"1530209841640";"-10.0"
"1530209841640";"-11.0"
"1530209841640";"-12.0"
"1530209841640";"-13.0"
"1530209841663";"-14.0"
"1530209841663";"-15.0"
"1530209841663";"-16.0"
"1530209841663";"-17.0"
"1530209841663";"-18.0"
"1530209841664";"-19.0"
"1530209841684";"-20.0"
"1530209841684";"-21.0"
"1530209841684";"-22.0"
"1530209841684";"-23.0"
"1530209841685";"-24.0"
"1530209841685";"-25.0"
"1530209841685";"-26.0"
"1530209841685";"-27.0"
"1530209841706";"-28.0"
"1530209841706";"-29.0"
"1530209841706";"-31.0"
"1530209841706";"-32.0"
"1530209841706";"-33.0"
"1530209841706";"-34.0"
"1530209841706";"-35.0"
"1530209841727";"-36.0"
"1530209841727";"-37.0"
"1530209841728";"-38.0"
"1530209841728";"-39.0"
"1530209841728";"-40.0"
"1530209841748";"-41.0"
"1530209841749";"-42.0"
"1530209841749";"-43.0"
"1530209841749";"-44.0"
"1530209841770";"-45.0"
"1530209841770";"-46.0"
"1530209841770";"-47.0"
"1530209841771";"-48.0"
"1530209841813";"-47.0"
"1530209841834";"-46.0"
"1530209841834";"-45.0"
"1530209841834";"-44.0"
"1530209841855";"-43.0"
"1530209841855";"-42.0"
"1530209841855";"-41.0"
"1530209841876";"-40.0"
"1530209841876";"-39.0"
"1530209841876";"-38.0"
"1530209841897";"-37.0"
"1530209841897";"-36.0"
"1530209841897";"-35.0"
"1530209841897";"-34.0"
"1530209841919";"-33.0"
"1530209841919";"-32.0"
"1530209841919";"-31.0"
"1530209841940";"-30.0"
"1530209841940";"-29.0"
"1530209841961";"-28.0"
"1530209841982";"-27.0"
"1530209842004";"-26.0"
"1530209842026";"-27.0"
"1530209842048";"-28.0"
"1530209842048";"-29.0"
"1530209842069";"-30.0"
"1530209842070";"-31.0"
"1530209842070";"-32.0"
"1530209842070";"-33.0"
"1530209842091";"-34.0"
"1530209842091";"-35.0"
"1530209842091";"-36.0"
"1530209842091";"-37.0"
"1530209842091";"-38.0"
"1530209842113";"-37.0"
"1530209842113";"-35.0"
"1530209842136";"-33.0"
"1530209842136";"-31.0"
"1530209842136";"-27.0"
"1530209842137";"-24.0"
"1530209842137";"-19.0"
"1530209842137";"-15.0"
"1530209842158";"-10.0"
"1530209842158";"-5.0"
"1530209842158";"0.0"
"1530209842189";"5.0"
"1530209842190";"11.0"
"1530209842190";"16.0"
"1530209842211";"22.0"
"1530209842211";"27.0"
"1530209842211";"32.0"
"1530209842232";"38.0"
"1530209842232";"43.0"
"1530209842235";"48.0"
"1530209842236";"52.0"
"1530209842236";"57.0"
"1530209842236";"61.0"
"1530209842236";"65.0"
"1530209842236";"69.0"
"1530209842236";"73.0"
"1530209842237";"77.0"
"1530209842257";"79.0"
"1530209842278";"80.0"
"1530209842280";"81.0"
"1530209842280";"82.0"
"1530209842280";"83.0"
"1530209842323";"84.0"
"1530209842323";"82.0"
"1530209842323";"80.0"
"1530209842324";"78.0"
"1530209842324";"76.0"
"1530209842345";"74.0"
"1530209842345";"71.0"
"1530209842345";"69.0"
"1530209842345";"66.0"
"1530209842346";"64.0"
"1530209842346";"62.0"
"1530209842369";"59.0"
"1530209842370";"57.0"
"1530209842370";"54.0"
"1530209842370";"52.0"
"1530209842370";"49.0"
"1530209842370";"46.0"
"1530209842392";"44.0"
"1530209842392";"41.0"
"1530209842392";"39.0"
"1530209842392";"36.0"
"1530209842392";"33.0"
"1530209842392";"31.0"
"1530209842413";"28.0"
"1530209842413";"26.0"
"1530209842413";"23.0"
"1530209842413";"21.0"
"1530209842414";"19.0"
"1530209842414";"16.0"
"1530209842414";"14.0"
"1530209842414";"12.0"
"1530209842414";"10.0"
"1530209842434";"8.0"
"1530209842434";"6.0"
"1530209842435";"4.0"
"1530209842435";"2.0"
"1530209842435";"1.0"
"1530209842435";"0.0"
"1530209842456";"-1.0"
"1530209842457";"-2.0"
"1530209842457";"-3.0"
"1530209842457";"-4.0"
"1530209842457";"-5.0"
"1530209842457";"-6.0"
"1530209842478";"-7.0"
"1530209842499";"-8.0"
"1530209842499";"-7.0"
"1530209842523";"-6.0"
"1530209842523";"-5.0"
"1530209842544";"-4.0"
"1530209842545";"-3.0"
"1530209842545";"-2.0"
"1530209842545";"-1.0"
"1530209842566";"0.0"
"1530209842566";"1.0"
"1530209842588";"2.0"
"1530209842588";"3.0"
"1530209842588";"4.0"
"1530209842588";"5.0"
"1530209842588";"6.0"
"1530209842609";"7.0"
"1530209842609";"8.0"
"1530209842609";"9.0"
"1530209842609";"10.0"
"1530209842630";"11.0"
"1530209842630";"12.0"
"1530209842630";"13.0"
"1530209842651";"14.0"
"1530209842652";"15.0"
"1530209842652";"16.0"
"1530209842672";"17.0"
"1530209842673";"18.0"
"1530209842673";"19.0"
"1530209842695";"20.0"
"1530209842716";"21.0"
"1530209842716";"22.0"
"1530209842718";"21.0"
"1530209842738";"20.0"
"1530209842739";"19.0"
"1530209842739";"18.0"
"1530209842759";"17.0"
"1530209842760";"16.0"
"1530209842760";"15.0"
"1530209842760";"14.0"
"1530209842760";"13.0"
"1530209842781";"12.0"
"1530209842781";"11.0"
"1530209842781";"10.0"
"1530209842782";"8.0"
"1530209842783";"7.0"
"1530209842783";"5.0"
"1530209842783";"4.0"
"1530209842803";"2.0"
"1530209842803";"0.0"
"1530209842803";"-1.0"
"1530209842804";"-3.0"
"1530209842804";"-5.0"
"1530209842824";"-7.0"
"1530209842824";"-9.0"
"1530209842825";"-11.0"
"1530209842825";"-13.0"
"1530209842825";"-16.0"
"1530209842825";"-18.0"
"1530209842825";"-20.0"
"1530209842825";"-23.0"
"1530209842846";"-25.0"
"1530209842846";"-28.0"
"1530209842846";"-31.0"
"1530209842847";"-33.0"
"1530209842848";"-36.0"
"1530209842868";"-39.0"
"1530209842869";"-42.0"
"1530209842869";"-45.0"
"1530209842869";"-48.0"
"1530209842869";"-51.0"
"1530209842869";"-54.0"
"1530209842869";"-57.0"
"1530209842890";"-60.0"
"1530209842890";"-63.0"
"1530209842890";"-67.0"
"1530209842890";"-70.0"
"1530209842890";"-73.0"
"1530209842890";"-76.0"
"1530209842911";"-79.0"
"1530209842911";"-82.0"
"1530209842911";"-85.0"
"1530209842911";"-88.0"
"1530209842912";"-91.0"
"1530209842913";"-94.0"
"1530209842913";"-96.0"
"1530209842913";"-99.0"
"1530209842913";"-101.0"
"1530209842934";"-104.0"
"1530209842934";"-106.0"
"1530209842934";"-108.0"
"1530209842934";"-110.0"
"1530209842935";"-112.0"
"1530209842935";"-113.0"
"1530209842955";"-114.0"
"1530209842956";"-115.0"
"1530209842956";"-116.0"
"1530209842976";"-115.0"
"1530209842977";"-113.0"
"1530209842977";"-111.0"
"1530209842977";"-108.0"
"1530209842978";"-104.0"
"1530209842999";"-100.0"
"1530209842999";"-95.0"
"1530209842999";"-90.0"
"1530209842999";"-84.0"
"1530209842999";"-77.0"
"1530209842999";"-70.0"
"1530209842999";"-63.0"
"1530209843000";"-56.0"
"1530209843000";"-49.0"
"1530209843000";"-42.0"
"1530209843020";"-35.0"
"1530209843021";"-28.0"
"1530209843021";"-22.0"
"1530209843041";"-15.0"
"1530209843042";"-9.0"
"1530209843042";"-2.0"
"1530209843042";"3.0"
"1530209843042";"8.0"
"1530209843042";"14.0"
"1530209843043";"19.0"
"1530209843064";"24.0"
"1530209843064";"29.0"
"1530209843064";"34.0"
"1530209843064";"38.0"
"1530209843064";"42.0"
"1530209843064";"46.0"
"1530209843064";"50.0"
"1530209843065";"53.0"
"1530209843086";"56.0"
"1530209843086";"59.0"
"1530209843086";"61.0"
"1530209843107";"64.0"
"1530209843107";"66.0"
"1530209843107";"68.0"
"1530209843107";"69.0"
"1530209843108";"71.0"
"1530209843108";"72.0"
"1530209843108";"73.0"
"1530209843110";"74.0"
"1530209843130";"75.0"
"1530209843131";"74.0"
"1530209843131";"73.0"
"1530209843151";"72.0"
"1530209843151";"71.0"
"1530209843172";"70.0"
"1530209843172";"69.0"
"1530209843193";"68.0"
"1530209843193";"66.0"
"1530209843193";"65.0"
"1530209843193";"64.0"
"1530209843193";"62.0"
"1530209843193";"61.0"
"1530209843193";"59.0"
"1530209843193";"57.0"
"1530209843193";"56.0"
"1530209843193";"54.0"
"1530209843248";"53.0"
"1530209843249";"51.0"
"1530209843270";"49.0"
"1530209843270";"47.0"
"1530209843270";"46.0"
"1530209843271";"44.0"
"1530209843271";"42.0"
"1530209843271";"41.0"
"1530209843271";"39.0"
"1530209843271";"38.0"
"1530209843271";"36.0"
"1530209843271";"35.0"
"1530209843272";"33.0"
"1530209843272";"31.0"
"1530209843272";"30.0"
"1530209843272";"28.0"
"1530209843272";"27.0"
"1530209843275";"25.0"
"1530209843275";"24.0"
"1530209843275";"22.0"
"1530209843275";"21.0"
"1530209843275";"19.0"
"1530209843276";"18.0"
"1530209843276";"16.0"
"1530209843276";"15.0"
"1530209843298";"14.0"
"1530209843298";"13.0"
"1530209843298";"11.0"
"1530209843298";"10.0"
"1530209843298";"9.0"
"1530209843298";"8.0"
"1530209843298";"6.0"
"1530209843298";"5.0"
"1530209843299";"4.0"
"1530209843299";"3.0"
"1530209843320";"2.0"
"1530209843321";"1.0"
"1530209843342";"0.0"
"1530209843343";"1.0"
"1530209843384";"2.0"
"1530209843430";"1.0"
"1530209843430";"0.0"
"1530209843472";"-1.0"
"1530209843472";"-2.0"
"1530209843493";"-3.0"
"1530209843556";"-2.0"
"1530209843599";"-1.0"
"1530209843599";"0.0"
"1530209843664";"1.0"
"1530209843685";"2.0"
"1530209843706";"3.0"
"1530209843727";"4.0"
"1530209843748";"5.0"
"1530209843748";"6.0"
"1530209843769";"7.0"
"1530209843769";"8.0"
"1530209843769";"9.0"
"1530209843769";"10.0"
"1530209843790";"11.0"
"1530209843790";"12.0"
"1530209843790";"13.0"
"1530209843790";"14.0"
"1530209843811";"15.0"
"1530209843811";"16.0"
"1530209843811";"17.0"
"1530209843811";"18.0"
"1530209843811";"19.0"
"1530209843812";"20.0"
"1530209843812";"21.0"
"1530209843812";"22.0"
"1530209843812";"23.0"
"1530209843832";"24.0"
"1530209843833";"25.0"
"1530209843853";"26.0"
"1530209843854";"27.0"
"1530209843854";"28.0"
"1530209843854";"29.0"
"1530209843875";"30.0"
"1530209843896";"29.0"
"1530209843917";"28.0"
"1530209843919";"27.0"
"1530209843919";"26.0"
"1530209843919";"25.0"
"1530209843940";"24.0"
"1530209843940";"23.0"
"1530209843940";"22.0"
"1530209843940";"21.0"
"1530209843960";"20.0"
"1530209843961";"19.0"
"1530209843961";"18.0"
"1530209843961";"17.0"
"1530209843982";"16.0"
"1530209843982";"15.0"
"1530209843982";"14.0"
"1530209843982";"13.0"
"1530209843982";"12.0"
"1530209844003";"11.0"
"1530209844003";"10.0"
"1530209844003";"9.0"
"1530209844003";"8.0"
"1530209844024";"7.0"
"1530209844024";"6.0"
"1530209844045";"5.0"
"1530209844045";"4.0"
"1530209844087";"3.0"
"1530209844109";"2.0"
"1530209844130";"1.0"
"1530209844151";"0.0"
"1530209844206";"-1.0"
"1530209844227";"-2.0"
"1530209844227";"-3.0"
"1530209844248";"-4.0"
"1530209844248";"-5.0"
"1530209844248";"-6.0"
"1530209844270";"-7.0"
"1530209844270";"-8.0"
"1530209844271";"-9.0"
"1530209844291";"-10.0"
"1530209844312";"-11.0"
"1530209844314";"-12.0"
"1530209844335";"-13.0"
"1530209844335";"-14.0"
"1530209844356";"-15.0"
"1530209844356";"-16.0"
"1530209844356";"-17.0"
"1530209844380";"-18.0"
"1530209844400";"-19.0"
"1530209844442";"-18.0"
"1530209844463";"-17.0"
"1530209844484";"-16.0"
"1530209844484";"-15.0"
"1530209844505";"-14.0"
"1530209844526";"-13.0"
"1530209844527";"-12.0"
"1530209844547";"-11.0"
"1530209844548";"-10.0"
"1530209844548";"-9.0"
"1530209844548";"-8.0"
"1530209844548";"-7.0"
"1530209844548";"-6.0"
"1530209844548";"-4.0"
"1530209844548";"-3.0"
"1530209844568";"-1.0"
"1530209844569";"0.0"
"1530209844569";"1.0"
"1530209844569";"3.0"
"1530209844569";"5.0"
"1530209844569";"7.0"
"1530209844589";"10.0"
"1530209844590";"12.0"
"1530209844590";"14.0"
"1530209844590";"17.0"
"1530209844590";"19.0"
"1530209844590";"22.0"
"1530209844611";"24.0"
"1530209844611";"26.0"
"1530209844611";"29.0"
"1530209844611";"31.0"
"1530209844611";"33.0"
"1530209844634";"35.0"
"1530209844634";"37.0"
"1530209844634";"39.0"
"1530209844634";"41.0"
"1530209844635";"43.0"
"1530209844635";"44.0"
"1530209844635";"46.0"
"1530209844655";"47.0"
"1530209844657";"49.0"
"1530209844657";"50.0"
"1530209844657";"51.0"
"1530209844657";"52.0"
"1530209844678";"53.0"
"1530209844678";"54.0"
"1530209844678";"55.0"
"1530209844699";"54.0"
"1530209844699";"53.0"
"1530209844720";"52.0"
"1530209844720";"51.0"
"1530209844720";"50.0"
"1530209844720";"49.0"
"1530209844720";"48.0"
"1530209844741";"46.0"
"1530209844741";"45.0"
"1530209844741";"44.0"
"1530209844762";"43.0"
"1530209844762";"42.0"
"1530209844762";"41.0"
"1530209844762";"40.0"
"1530209844762";"38.0"
"1530209844762";"37.0"
"1530209844763";"36.0"
"1530209844763";"35.0"
"1530209844763";"33.0"
"1530209844763";"32.0"
"1530209844783";"31.0"
"1530209844784";"30.0"
"1530209844784";"29.0"
"1530209844784";"27.0"
"1530209844784";"26.0"
"1530209844784";"25.0"
"1530209844805";"24.0"
"1530209844805";"22.0"
"1530209844805";"21.0"
"1530209844805";"20.0"
"1530209844805";"18.0"
"1530209844805";"17.0"
"1530209844826";"16.0"
"1530209844826";"14.0"
"1530209844826";"13.0"
"1530209844826";"12.0"
"1530209844826";"10.0"
"1530209844827";"9.0"
"1530209844847";"8.0"
"1530209844847";"6.0"
"1530209844848";"5.0"
"1530209844848";"4.0"
"1530209844848";"2.0"
"1530209844848";"1.0"
"1530209844869";"0.0"
"1530209844869";"-2.0"
"1530209844869";"-3.0"
"1530209844869";"-4.0"
"1530209844869";"-5.0"
"1530209844890";"-6.0"
"1530209844890";"-7.0"
"1530209844890";"-8.0"
"1530209844890";"-9.0"
"1530209844890";"-10.0"
"1530209844890";"-11.0"
"1530209844912";"-12.0"
"1530209844912";"-13.0"
"1530209844912";"-14.0"
"1530209844913";"-15.0"
"1530209844913";"-16.0"
"1530209844933";"-17.0"
"1530209844934";"-18.0"
"1530209844934";"-19.0"
"1530209844934";"-20.0"
"1530209844934";"-21.0"
"1530209844934";"-22.0"
"1530209844934";"-23.0"
"1530209844955";"-24.0"
"1530209844955";"-25.0"
"1530209844955";"-26.0"
"1530209844976";"-27.0"
"1530209844976";"-28.0"
"1530209844976";"-29.0"
"1530209844976";"-30.0"
"1530209844976";"-31.0"
"1530209844976";"-32.0"
"1530209844976";"-33.0"
"1530209844978";"-34.0"
"1530209844978";"-35.0"
"1530209844998";"-37.0"
"1530209844999";"-38.0"
"1530209844999";"-39.0"
"1530209844999";"-40.0"
"1530209844999";"-41.0"
"1530209844999";"-43.0"
"1530209844999";"-44.0"
"1530209845020";"-45.0"
"1530209845020";"-46.0"
"1530209845020";"-48.0"
"1530209845020";"-49.0"
"1530209845020";"-50.0"
"1530209845041";"-52.0"
"1530209845041";"-53.0"
"1530209845041";"-55.0"
"1530209845041";"-56.0"
"1530209845041";"-58.0"
"1530209845041";"-60.0"
"1530209845062";"-62.0"
"1530209845062";"-64.0"
"1530209845062";"-66.0"
"1530209845062";"-69.0"
"1530209845083";"-71.0"
"1530209845083";"-73.0"
"1530209845083";"-76.0"
"1530209845083";"-79.0"
"1530209845083";"-81.0"
"1530209845084";"-84.0"
"1530209845084";"-87.0"
"1530209845084";"-90.0"
"1530209845084";"-92.0"
"1530209845105";"-95.0"
"1530209845105";"-98.0"
"1530209845105";"-101.0"
"1530209845105";"-104.0"
"1530209845105";"-107.0"
"1530209845105";"-110.0"
"1530209845126";"-113.0"
"1530209845126";"-116.0"
"1530209845126";"-119.0"
"1530209845127";"-121.0"
"1530209845127";"-124.0"
"1530209845127";"-127.0"
"1530209845127";"-130.0"
"1530209845127";"-133.0"
"1530209845127";"-136.0"
"1530209845148";"-139.0"
"1530209845148";"-141.0"
"1530209845148";"-144.0"
"1530209845169";"-147.0"
"1530209845169";"-150.0"
"1530209845189";"-153.0"
"1530209845190";"-155.0"
"1530209845190";"-158.0"
"1530209845190";"-160.0"
"1530209845190";"-163.0"
"1530209845190";"-166.0"
"1530209845190";"-168.0"
"1530209845190";"-171.0"
"1530209845212";"-174.0"
"1530209845212";"-177.0"
"1530209845212";"-181.0"
"1530209845233";"-185.0"
"1530209845233";"-189.0"
"1530209845233";"-194.0"
"1530209845233";"-198.0"
"1530209845233";"-204.0"
"1530209845233";"-209.0"
"1530209845234";"-215.0"
"1530209845234";"-222.0"
"1530209845234";"-228.0"
"1530209845234";"-234.0"
"1530209845234";"-240.0"
"1530209845263";"-247.0"
"1530209845264";"-253.0"
"1530209845264";"-258.0"
"1530209845284";"-264.0"
"1530209845285";"-269.0"
"1530209845285";"-274.0"
"1530209845285";"-279.0"
"1530209845285";"-283.0"
"1530209845285";"-288.0"
"1530209845285";"-291.0"
"1530209845285";"-295.0"
"1530209845285";"-298.0"
"1530209845286";"-300.0"
"1530209845286";"-302.0"
"1530209845286";"-303.0"
"1530209845306";"-302.0"
"1530209845307";"-301.0"
"1530209845307";"-299.0"
"1530209845307";"-297.0"
"1530209845307";"-295.0"
"1530209845307";"-292.0"
"1530209845307";"-288.0"
"1530209845308";"-284.0"
"1530209845308";"-280.0"
"1530209845329";"-275.0"
"1530209845329";"-270.0"
"1530209845329";"-264.0"
"1530209845329";"-259.0"
"1530209845329";"-253.0"
"1530209845329";"-248.0"
"1530209845350";"-241.0"
"1530209845350";"-235.0"
"1530209845350";"-228.0"
"1530209845350";"-221.0"
"1530209845371";"-214.0"
"1530209845371";"-207.0"
"1530209845371";"-200.0"
"1530209845371";"-192.0"
"1530209845371";"-185.0"
"1530209845372";"-177.0"
"1530209845392";"-169.0"
"1530209845392";"-162.0"
"1530209845393";"-154.0"
"1530209845393";"-146.0"
"1530209845393";"-138.0"
"1530209845393";"-129.0"
"1530209845393";"-121.0"
"1530209845414";"-112.0"
"1530209845414";"-103.0"
"1530209845414";"-94.0"
"1530209845415";"-85.0"
"1530209845415";"-76.0"
"1530209845435";"-66.0"
"1530209845436";"-55.0"
"1530209845436";"-44.0"
"1530209845436";"-32.0"
"1530209845436";"-19.0"
"1530209845437";"-5.0"
"1530209845437";"9.0"
"1530209845437";"26.0"
"1530209845437";"44.0"
"1530209845458";"63.0"
"1530209845458";"84.0"
"1530209845458";"105.0"
"1530209845479";"106.0"
"1530209845480";"107.0"
"1530209845480";"108.0"
"1530209845480";"109.0"
"1530209845480";"110.0"
"1530209845480";"111.0"
"1530209845501";"112.0"
"1530209845501";"113.0"
"1530209845501";"114.0"
"1530209845501";"115.0"
"1530209845522";"116.0"
"1530209845522";"117.0"
"1530209845522";"118.0"
"1530209845522";"119.0"
"1530209845522";"120.0"
"1530209845543";"121.0"
"1530209845543";"122.0"
"1530209845543";"123.0"
"1530209845544";"124.0"
"1530209845544";"125.0"
"1530209845544";"126.0"
"1530209845564";"127.0"
"1530209845565";"128.0"
"1530209845565";"129.0"
"1530209845565";"130.0"
"1530209845565";"131.0"
"1530209845586";"132.0"
"1530209845586";"133.0"
"1530209845586";"134.0"
"1530209845586";"135.0"
"1530209845621";"136.0"
"1530209845621";"137.0"
"1530209845621";"138.0"
"1530209845621";"139.0"
"1530209845621";"140.0"
"1530209845621";"141.0"
"1530209845642";"142.0"
"1530209845642";"122.0"
"1530209845665";"101.0"
"1530209845665";"80.0"
"1530209845666";"59.0"
"1530209845666";"38.0"
"1530209845666";"18.0"
"1530209845666";"0.0"
"1530209845687";"-19.0"
"1530209845687";"-37.0"
"1530209845688";"-54.0"
"1530209845688";"-71.0"
"1530209845688";"-87.0"
"1530209845708";"-102.0"
"1530209845709";"-116.0"
"1530209845709";"-130.0"
"1530209845709";"-143.0"
"1530209845709";"-155.0"
"1530209845709";"-167.0"
"1530209845709";"-177.0"
"1530209845709";"-187.0"
"1530209845710";"-196.0"
"1530209845710";"-205.0"
"1530209845731";"-212.0"
"1530209845731";"-219.0"
"1530209845731";"-225.0"
"1530209845732";"-231.0"
"1530209845732";"-236.0"
"1530209845732";"-241.0"
"1530209845753";"-244.0"
"1530209845753";"-248.0"
"1530209845753";"-250.0"
"1530209845753";"-252.0"
"1530209845753";"-254.0"
"1530209845774";"-255.0"
"1530209845775";"-256.0"
"1530209845775";"-257.0"
"1530209845775";"-256.0"
"1530209845775";"-255.0"
"1530209845795";"-254.0"
"1530209845796";"-252.0"
"1530209845796";"-250.0"
"1530209845796";"-248.0"
"1530209845796";"-246.0"
"1530209845817";"-244.0"
"1530209845817";"-241.0"
"1530209845817";"-238.0"
"1530209845817";"-236.0"
"1530209845817";"-233.0"
"1530209845817";"-230.0"
"1530209845817";"-226.0"
"1530209845817";"-223.0"
"1530209845818";"-220.0"
"1530209845818";"-216.0"
"1530209845818";"-213.0"
"1530209845838";"-209.0"
"1530209845838";"-205.0"
"1530209845859";"-201.0"
"1530209845859";"-197.0"
"1530209845860";"-193.0"
"1530209845860";"-189.0"
"1530209845860";"-185.0"
"1530209845860";"-180.0"
"1530209845860";"-176.0"
"1530209845861";"-172.0"
"1530209845861";"-167.0"
"1530209845882";"-163.0"
"1530209845882";"-159.0"
"1530209845882";"-154.0"
"1530209845882";"-150.0"
"1530209845903";"-146.0"
"1530209845903";"-141.0"
"1530209845903";"-137.0"
"1530209845903";"-133.0"
"1530209845904";"-129.0"
"1530209845904";"-125.0"
"1530209845904";"-120.0"
"1530209845904";"-116.0"
"1530209845904";"-113.0"
"1530209845927";"-109.0"
"1530209845927";"-105.0"
"1530209845928";"-101.0"
"1530209845928";"-98.0"
"1530209845928";"-94.0"
"1530209845948";"-91.0"
"1530209845948";"-87.0"
"1530209845949";"-84.0"
"1530209845949";"-81.0"
"1530209845969";"-78.0"
"1530209845970";"-75.0"
"1530209845970";"-72.0"
"1530209845970";"-69.0"
"1530209845970";"-66.0"
"1530209845970";"-63.0"
"1530209845970";"-60.0"
"1530209845970";"-58.0"
"1530209845991";"-55.0"
"1530209845991";"-53.0"
"1530209845991";"-50.0"
"1530209845992";"-48.0"
"1530209845992";"-46.0"
"1530209845993";"-43.0"
"1530209845993";"-41.0"
"1530209845993";"-39.0"
"1530209845993";"-37.0"
"1530209845993";"-36.0"
"1530209846013";"-34.0"
"1530209846014";"-32.0"
"1530209846014";"-31.0"
"1530209846014";"-29.0"
"1530209846014";"-28.0"
"1530209846014";"-27.0"
"1530209846035";"-25.0"
"1530209846035";"-24.0"
"1530209846035";"-23.0"
"1530209846035";"-21.0"
"1530209846035";"-20.0"
"1530209846035";"-19.0"
"1530209846035";"-18.0"
"1530209846057";"-17.0"
"1530209846057";"-16.0"
"1530209846057";"-15.0"
"1530209846057";"-14.0"
"1530209846057";"-13.0"
"1530209846078";"-12.0"
"1530209846078";"-11.0"
"1530209846078";"-10.0"
"1530209846078";"-9.0"
"1530209846099";"-8.0"
"1530209846099";"-7.0"
"1530209846100";"-6.0"
"1530209846120";"-5.0"
"1530209846211";"-4.0"
"1530209846232";"-3.0"
"1530209846232";"-2.0"
"1530209846254";"-3.0"
"1530209846254";"-4.0"
"1530209846254";"-5.0"
"1530209846254";"-6.0"
"1530209846254";"-7.0"
"1530209846255";"-9.0"
"1530209846255";"-10.0"
"1530209846255";"-11.0"
"1530209846255";"-12.0"
"1530209846255";"-13.0"
"1530209846255";"-14.0"
"1530209846255";"-15.0"
"1530209846255";"-16.0"
"1530209846276";"-17.0"
"1530209846276";"-18.0"
"1530209846276";"-19.0"
"1530209846276";"-20.0"
"1530209846277";"-21.0"
"1530209846298";"-20.0"
"1530209846298";"-19.0"
"1530209846298";"-18.0"
"1530209846320";"-17.0"
"1530209846320";"-16.0"
"1530209846320";"-15.0"
"1530209846320";"-14.0"
"1530209846320";"-13.0"
"1530209846341";"-12.0"
"1530209846341";"-11.0"
"1530209846341";"-9.0"
"1530209846341";"-8.0"
"1530209846362";"-7.0"
"1530209846362";"-5.0"
"1530209846363";"-3.0"
"1530209846363";"-2.0"
"1530209846363";"0.0"
"1530209846363";"2.0"
"1530209846363";"4.0"
"1530209846363";"5.0"
"1530209846384";"7.0"
"1530209846384";"8.0"
"1530209846384";"10.0"
"1530209846385";"11.0"
"1530209846385";"13.0"
"1530209846406";"14.0"
"1530209846406";"15.0"
"1530209846406";"16.0"
"1530209846406";"17.0"
"1530209846406";"18.0"
"1530209846406";"19.0"
"1530209846427";"18.0"
"1530209846427";"17.0"
"1530209846427";"16.0"
"1530209846448";"15.0"
"1530209846448";"14.0"
"1530209846449";"12.0"
"1530209846470";"11.0"
"1530209846471";"10.0"
"1530209846471";"8.0"
"1530209846471";"7.0"
"1530209846471";"5.0"
"1530209846471";"3.0"
"1530209846476";"2.0"
"1530209846477";"0.0"
"1530209846477";"-1.0"
"1530209846498";"-2.0"
"1530209846498";"-4.0"
"1530209846498";"-6.0"
"1530209846498";"-7.0"
"1530209846498";"-9.0"
"1530209846498";"-11.0"
"1530209846498";"-12.0"
"1530209846498";"-14.0"
"1530209846498";"-15.0"
"1530209846498";"-16.0"
"1530209846521";"-17.0"
"1530209846521";"-19.0"
"1530209846521";"-20.0"
"1530209846521";"-21.0"
"1530209846521";"-22.0"
"1530209846542";"-23.0"
"1530209846542";"-24.0"
"1530209846542";"-25.0"
"1530209846542";"-26.0"
"1530209846542";"-27.0"
"1530209846542";"-28.0"
"1530209846563";"-29.0"
"1530209846563";"-30.0"
"1530209846584";"-31.0"
"1530209846585";"-32.0"
"1530209846585";"-31.0"
"1530209846606";"-30.0"
"1530209846606";"-29.0"
"1530209846627";"-28.0"
"1530209846648";"-27.0"
"1530209846648";"-26.0"
"1530209846649";"-25.0"
"1530209846670";"-24.0"
"1530209846670";"-23.0"
"1530209846670";"-22.0"
"1530209846670";"-21.0"
"1530209846691";"-20.0"
"1530209846691";"-19.0"
"1530209846691";"-18.0"
"1530209846712";"-17.0"
"1530209846712";"-16.0"
"1530209846712";"-15.0"
"1530209846713";"-14.0"
"1530209846714";"-13.0"
"1530209846734";"-12.0"
"1530209846734";"-11.0"
"1530209846755";"-10.0"
"1530209846755";"-9.0"
"1530209846755";"-8.0"
"1530209846756";"-7.0"
"1530209846776";"-6.0"
"1530209846776";"-5.0"
"1530209846797";"-4.0"
"1530209846797";"-3.0"
"1530209846818";"-2.0"
"1530209846839";"-1.0"
"1530209846839";"0.0"
"1530209846902";"1.0"
"1530209846945";"2.0"
"1530209846966";"3.0"
"1530209846966";"4.0"
"1530209846967";"5.0"
"1530209846988";"6.0"
"1530209846988";"7.0"
"1530209846989";"8.0"
"1530209847009";"9.0"
"1530209847010";"10.0"
"1530209847010";"11.0"
"1530209847010";"12.0"
"1530209847010";"14.0"
"1530209847010";"16.0"
"1530209847031";"18.0"
"1530209847031";"21.0"
"1530209847031";"25.0"
"1530209847031";"30.0"
"1530209847031";"36.0"
"1530209847031";"44.0"
"1530209847054";"54.0"
"1530209847054";"66.0"
"1530209847055";"81.0"
"1530209847055";"97.0"
"1530209847056";"114.0"
"1530209847056";"133.0"
"1530209847076";"134.0"
"1530209847097";"135.0"
"1530209847097";"136.0"
"1530209847097";"137.0"
"1530209847097";"138.0"
"1530209847118";"139.0"
"1530209847118";"140.0"
"1530209847119";"141.0"
"1530209847119";"142.0"
"1530209847140";"143.0"
"1530209847141";"144.0"
"1530209847141";"145.0"
"1530209847141";"146.0"
"1530209847141";"147.0"
"1530209847141";"148.0"
"1530209847141";"149.0"
"1530209847179";"150.0"
"1530209847179";"151.0"
"1530209847180";"152.0"
"1530209847180";"153.0"
"1530209847200";"154.0"
"1530209847201";"155.0"
"1530209847221";"156.0"
"1530209847222";"157.0"
"1530209847244";"158.0"
"1530209847244";"159.0"
"1530209847244";"160.0"
"1530209847244";"161.0"
"1530209847244";"162.0"
"1530209847244";"163.0"
"1530209847244";"164.0"
"1530209847244";"165.0"
"1530209847244";"166.0"
"1530209847245";"167.0"
"1530209847245";"168.0"
"1530209847245";"169.0"
"1530209847245";"170.0"
"1530209847245";"171.0"
"1530209847247";"172.0"
"1530209847268";"173.0"
"1530209847268";"174.0"
"1530209847268";"175.0"
"1530209847289";"176.0"
"1530209847289";"177.0"
"1530209847309";"178.0"
"1530209847310";"171.0"
"1530209847311";"163.0"
"1530209847331";"156.0"
"1530209847332";"149.0"
"1530209847332";"142.0"
"1530209847332";"136.0"
"1530209847332";"129.0"
"1530209847332";"123.0"
"1530209847353";"117.0"
"1530209847353";"111.0"
"1530209847353";"105.0"
"1530209847354";"99.0"
"1530209847354";"94.0"
"1530209847354";"88.0"
"1530209847354";"83.0"
"1530209847354";"78.0"
"1530209847355";"73.0"
"1530209847375";"69.0"
"1530209847375";"64.0"
"1530209847375";"60.0"
"1530209847376";"56.0"
"1530209847376";"53.0"
"1530209847396";"49.0"
"1530209847396";"46.0"
"1530209847396";"43.0"
"1530209847397";"41.0"
"1530209847397";"38.0"
"1530209847397";"35.0"
"1530209847397";"33.0"
"1530209847417";"31.0"
"1530209847418";"29.0"
"1530209847418";"27.0"
"1530209847418";"25.0"
"1530209847418";"23.0"
"1530209847418";"22.0"
"1530209847438";"20.0"
"1530209847439";"19.0"
"1530209847439";"18.0"
"1530209847439";"17.0"
"1530209847439";"15.0"
"1530209847439";"14.0"
"1530209847460";"13.0"
"1530209847460";"12.0"
"1530209847460";"11.0"
"1530209847460";"10.0"
"1530209847481";"9.0"
"1530209847481";"8.0"
"1530209847524";"9.0"
"1530209847524";"10.0"
"1530209847544";"11.0"
"1530209847545";"12.0"
"1530209847565";"13.0"
"1530209847566";"14.0"
"1530209847566";"15.0"
"1530209847566";"16.0"
"1530209847566";"17.0"
"1530209847587";"18.0"
"1530209847587";"19.0"
"1530209847608";"20.0"
"1530209847608";"21.0"
"1530209847608";"22.0"
"1530209847629";"23.0"
"1530209847629";"24.0"
"1530209847629";"25.0"
"1530209847629";"26.0"
"1530209847629";"27.0"
"1530209847650";"28.0"
"1530209847650";"29.0"
"1530209847651";"30.0"
"1530209847672";"31.0"
"1530209847672";"32.0"
"1530209847672";"33.0"
"1530209847693";"32.0"
"1530209847693";"31.0"
"1530209847693";"30.0"
"1530209847694";"29.0"
"1530209847714";"27.0"
"1530209847715";"26.0"
"1530209847715";"25.0"
"1530209847715";"23.0"
"1530209847716";"21.0"
"1530209847737";"19.0"
"1530209847737";"16.0"
"1530209847737";"14.0"
"1530209847737";"11.0"
"1530209847737";"8.0"
"1530209847737";"5.0"
"1530209847737";"2.0"
"1530209847737";"0.0"
"1530209847758";"-3.0"
"1530209847758";"-6.0"
"1530209847758";"-10.0"
"1530209847758";"-13.0"
"1530209847759";"-17.0"
"1530209847779";"-21.0"
"1530209847780";"-24.0"
"1530209847780";"-28.0"
"1530209847780";"-32.0"
"1530209847780";"-35.0"
"1530209847780";"-39.0"
"1530209847800";"-42.0"
"1530209847801";"-46.0"
"1530209847801";"-49.0"
"1530209847801";"-53.0"
"1530209847801";"-56.0"
"1530209847801";"-60.0"
"1530209847801";"-63.0"
"1530209847801";"-67.0"
"1530209847801";"-70.0"
"1530209847822";"-73.0"
"1530209847822";"-75.0"
"1530209847822";"-78.0"
"1530209847823";"-80.0"
"1530209847823";"-82.0"
"1530209847823";"-85.0"
"1530209847823";"-87.0"
"1530209847844";"-90.0"
"1530209847845";"-92.0"
"1530209847845";"-94.0"
"1530209847845";"-97.0"
"1530209847846";"-99.0"
"1530209847867";"-101.0"
"1530209847868";"-103.0"
"1530209847868";"-105.0"
"1530209847868";"-107.0"
"1530209847868";"-110.0"
"1530209847868";"-112.0"
"1530209847868";"-114.0"
"1530209847889";"-116.0"
"1530209847890";"-118.0"
"1530209847890";"-119.0"
"1530209847890";"-121.0"
"1530209847890";"-123.0"
"1530209847912";"-124.0"
"1530209847912";"-125.0"
"1530209847912";"-127.0"
"1530209847912";"-128.0"
"1530209847912";"-129.0"
"1530209847912";"-131.0"
"1530209847912";"-132.0"
"1530209847914";"-133.0"
"1530209847914";"-134.0"
"1530209847914";"-135.0"
"1530209847936";"-136.0"
"1530209847936";"-137.0"
"1530209847936";"-138.0"
"1530209847937";"-139.0"
"1530209847937";"-140.0"
"1530209847957";"-141.0"
"1530209847957";"-142.0"
"1530209847957";"-143.0"
"1530209847957";"-145.0"
"1530209847958";"-146.0"
"1530209847958";"-148.0"
"1530209847958";"-150.0"
"1530209847978";"-151.0"
"1530209847979";"-153.0"
"1530209847979";"-155.0"
"1530209847979";"-157.0"
"1530209848000";"-159.0"
"1530209848000";"-161.0"
"1530209848000";"-162.0"
"1530209848001";"-164.0"
"1530209848021";"-165.0"
"1530209848021";"-167.0"
"1530209848021";"-168.0"
"1530209848022";"-169.0"
"1530209848022";"-170.0"
"1530209848022";"-171.0"
"1530209848022";"-172.0"
"1530209848042";"-171.0"
"1530209848063";"-170.0"
"1530209848065";"-169.0"
"1530209848065";"-168.0"
"1530209848065";"-167.0"
"1530209848066";"-166.0"
"1530209848066";"-165.0"
"1530209848066";"-164.0"
"1530209848066";"-163.0"
"1530209848066";"-162.0"
"1530209848087";"-161.0"
"1530209848087";"-160.0"
"1530209848087";"-159.0"
"1530209848087";"-158.0"
"1530209848087";"-156.0"
"1530209848108";"-155.0"
"1530209848108";"-154.0"
"1530209848109";"-153.0"
"1530209848109";"-151.0"
"1530209848109";"-150.0"
"1530209848109";"-148.0"
"1530209848111";"-147.0"
"1530209848131";"-145.0"
"1530209848132";"-144.0"
"1530209848132";"-142.0"
"1530209848132";"-140.0"
"1530209848132";"-138.0"
"1530209848132";"-136.0"
"1530209848153";"-134.0"
"1530209848153";"-132.0"
"1530209848153";"-130.0"
"1530209848175";"-128.0"
"1530209848175";"-125.0"
"1530209848175";"-123.0"
"1530209848175";"-120.0"
"1530209848175";"-118.0"
"1530209848175";"-116.0"
"1530209848175";"-113.0"
"1530209848196";"-111.0"
"1530209848196";"-108.0"
"1530209848196";"-106.0"
"1530209848196";"-103.0"
"1530209848196";"-101.0"
"1530209848196";"-98.0"
"1530209848218";"-96.0"
"1530209848218";"-93.0"
"1530209848239";"-91.0"
"1530209848239";"-88.0"
"1530209848239";"-86.0"
"1530209848240";"-83.0"
"1530209848240";"-81.0"
"1530209848240";"-78.0"
"1530209848260";"-76.0"
"1530209848260";"-73.0"
"1530209848260";"-71.0"
"1530209848261";"-69.0"
"1530209848261";"-66.0"
"1530209848261";"-64.0"
"1530209848261";"-62.0"
"1530209848281";"-60.0"
"1530209848282";"-58.0"
"1530209848282";"-56.0"
"1530209848282";"-54.0"
"1530209848282";"-52.0"
"1530209848282";"-50.0"
"1530209848282";"-49.0"
"1530209848282";"-47.0"
"1530209848282";"-46.0"
"1530209848282";"-44.0"
"1530209848282";"-43.0"
"1530209848283";"-41.0"
"1530209848283";"-40.0"
"1530209848283";"-39.0"
"1530209848283";"-38.0"
"1530209848304";"-37.0"
"1530209848304";"-36.0"
"1530209848304";"-35.0"
"1530209848304";"-34.0"
"1530209848325";"-33.0"
"1530209848325";"-32.0"
"1530209848325";"-31.0"
"1530209848325";"-30.0"
"1530209848325";"-29.0"
"1530209848346";"-28.0"
"1530209848346";"-27.0"
"1530209848346";"-26.0"
"1530209848346";"-25.0"
"1530209848367";"-24.0"
"1530209848368";"-23.0"
"1530209848368";"-22.0"
"1530209848368";"-21.0"
"1530209848389";"-20.0"
"1530209848390";"-19.0"
"1530209848390";"-18.0"
"1530209848390";"-17.0"
"1530209848411";"-16.0"
"1530209848411";"-15.0"
"1530209848412";"-14.0"
"1530209848412";"-13.0"
"1530209848433";"-12.0"
"1530209848433";"-11.0"
"1530209848455";"-10.0"
"1530209848475";"-9.0"
"1530209848496";"-10.0"
"1530209848517";"-11.0"
"1530209848517";"-12.0"
"1530209848518";"-13.0"
"1530209848518";"-14.0"
"1530209848539";"-15.0"
"1530209848539";"-16.0"
"1530209848539";"-17.0"
"1530209848539";"-18.0"
"1530209848560";"-19.0"
"1530209848560";"-20.0"
"1530209848560";"-21.0"
"1530209848560";"-22.0"
"1530209848560";"-23.0"
"1530209848560";"-24.0"
"1530209848560";"-25.0"
"1530209848560";"-26.0"
"1530209848581";"-27.0"
"1530209848581";"-28.0"
"1530209848581";"-29.0"
"1530209848602";"-30.0"
"1530209848602";"-31.0"
"1530209848602";"-30.0"
"1530209848602";"-29.0"
"1530209848623";"-28.0"
"1530209848623";"-27.0"
"1530209848644";"-25.0"
"1530209848644";"-24.0"
"1530209848644";"-23.0"
"1530209848644";"-21.0"
"1530209848644";"-19.0"
"1530209848644";"-17.0"
"1530209848644";"-16.0"
"1530209848667";"-13.0"
"1530209848667";"-11.0"
"1530209848667";"-9.0"
"1530209848667";"-7.0"
"1530209848667";"-5.0"
"1530209848668";"-3.0"
"1530209848668";"0.0"
"1530209848668";"1.0"
"1530209848668";"3.0"
"1530209848688";"5.0"
"1530209848688";"7.0"
"1530209848689";"9.0"
"1530209848689";"11.0"
"1530209848689";"13.0"
"1530209848689";"15.0"
"1530209848710";"16.0"
"1530209848710";"18.0"
"1530209848710";"20.0"
"1530209848710";"21.0"
"1530209848710";"23.0"
"1530209848711";"24.0"
"1530209848732";"25.0"
"1530209848732";"26.0"
"1530209848732";"27.0"
"1530209848732";"28.0"
"1530209848732";"29.0"
"1530209848732";"30.0"
"1530209848732";"31.0"
"1530209848753";"32.0"
"1530209848753";"33.0"
"1530209848796";"32.0"
"1530209848796";"31.0"
"1530209848817";"30.0"
"1530209848817";"29.0"
"1530209848817";"28.0"
"1530209848817";"27.0"
"1530209848817";"26.0"
"1530209848817";"25.0"
"1530209848838";"24.0"
"1530209848838";"23.0"
"1530209848838";"22.0"
"1530209848838";"21.0"
"1530209848838";"20.0"
"1530209848860";"19.0"
"1530209848860";"18.0"
"1530209848860";"17.0"
"1530209848860";"16.0"
"1530209848881";"15.0"
"1530209848881";"14.0"
"1530209848881";"13.0"
"1530209848881";"12.0"
"1530209848902";"11.0"
"1530209848902";"10.0"
"1530209848923";"9.0"
"1530209848923";"8.0"
"1530209848923";"7.0"
"1530209848923";"6.0"
"1530209848923";"5.0"
"1530209848923";"4.0"
"1530209848944";"3.0"
"1530209848944";"2.0"
"1530209848948";"1.0"
"1530209848949";"0.0"
"1530209848969";"-1.0"
"1530209848970";"-2.0"
"1530209848970";"-3.0"
"1530209848970";"-4.0"
"1530209848991";"-5.0"
"1530209848992";"-6.0"
"1530209849012";"-7.0"
"1530209849012";"-8.0"
"1530209849033";"-9.0"
"1530209849033";"-10.0"
"1530209849054";"-11.0"
"1530209849054";"-12.0"
"1530209849075";"-13.0"
"1530209849075";"-14.0"
"1530209849096";"-15.0"
"1530209849096";"-16.0"
"1530209849117";"-17.0"
"1530209849119";"-18.0"
"1530209849119";"-19.0"
"1530209849140";"-20.0"
"1530209849140";"-21.0"
"1530209849161";"-22.0"
"1530209849161";"-23.0"
"1530209849182";"-24.0"
"1530209849183";"-25.0"
"1530209849183";"-26.0"
"1530209849216";"-27.0"
"1530209849237";"-28.0"
"1530209849257";"-27.0"
"1530209849278";"-26.0"
"1530209849280";"-25.0"
"1530209849301";"-24.0"
"1530209849301";"-23.0"
"1530209849302";"-22.0"
"1530209849324";"-21.0"
"1530209849345";"-20.0"
"1530209849345";"-19.0"
"1530209849366";"-18.0"
"1530209849408";"-17.0"
"1530209849409";"-16.0"
"1530209849429";"-17.0"
"1530209849430";"-16.0"
"1530209849473";"-15.0"
"1530209849473";"-14.0"
"1530209849494";"-13.0"
"1530209849494";"-12.0"
"1530209849494";"-11.0"
"1530209849516";"-10.0"
"1530209849516";"-9.0"
"1530209849516";"-8.0"
"1530209849516";"-7.0"
"1530209849516";"-6.0"
"1530209849518";"-4.0"
"1530209849538";"-2.0"
"1530209849538";"-1.0"
"1530209849539";"0.0"
"1530209849539";"2.0"
"1530209849539";"4.0"
"1530209849539";"6.0"
"1530209849539";"8.0"
"1530209849539";"10.0"
"1530209849539";"13.0"
"1530209849539";"15.0"
"1530209849560";"17.0"
"1530209849560";"20.0"
"1530209849581";"22.0"
"1530209849581";"24.0"
"1530209849581";"27.0"
"1530209849581";"29.0"
"1530209849581";"31.0"
"1530209849582";"33.0"
"1530209849582";"36.0"
"1530209849583";"38.0"
"1530209849583";"40.0"
"1530209849583";"42.0"
"1530209849604";"43.0"
"1530209849604";"45.0"
"1530209849604";"47.0"
"1530209849604";"48.0"
"1530209849604";"49.0"
"1530209849604";"51.0"
"1530209849625";"52.0"
"1530209849625";"53.0"
"1530209849625";"54.0"
"1530209849625";"55.0"
"1530209849646";"56.0"
"1530209849646";"57.0"
"1530209849647";"58.0"
"1530209849668";"59.0"
"1530209849709";"58.0"
"1530209849710";"57.0"
"1530209849733";"56.0"
"1530209849733";"55.0"
"1530209849733";"54.0"
"1530209849733";"53.0"
"1530209849733";"52.0"
"1530209849734";"51.0"
"1530209849734";"50.0"
"1530209849755";"49.0"
"1530209849755";"48.0"
"1530209849755";"47.0"
"1530209849755";"46.0"
"1530209849755";"45.0"
"1530209849756";"44.0"
"1530209849776";"43.0"
"1530209849777";"42.0"
"1530209849777";"41.0"
"1530209849777";"40.0"
"1530209849777";"39.0"
"1530209849780";"38.0"
"1530209849801";"37.0"
"1530209849801";"36.0"
"1530209849801";"35.0"
"1530209849801";"34.0"
"1530209849822";"33.0"
"1530209849822";"32.0"
"1530209849822";"31.0"
"1530209849822";"30.0"
"1530209849822";"28.0"
"1530209849822";"27.0"
"1530209849822";"26.0"
"1530209849822";"25.0"
"1530209849823";"24.0"
"1530209849823";"23.0"
"1530209849843";"22.0"
"1530209849844";"21.0"
"1530209849844";"20.0"
"1530209849844";"19.0"
"1530209849844";"18.0"
"1530209849865";"16.0"
"1530209849866";"15.0"
"1530209849866";"14.0"
"1530209849866";"13.0"
"1530209849866";"11.0"
"1530209849886";"10.0"
"1530209849887";"9.0"
"1530209849887";"8.0"
"1530209849887";"7.0"
"1530209849887";"5.0"
"1530209849887";"4.0"
"1530209849887";"3.0"
"1530209849887";"2.0"
"1530209849908";"1.0"
"1530209849908";"0.0"
"1530209849908";"-1.0"
"1530209849908";"-2.0"
"1530209849908";"-3.0"
"1530209849910";"-4.0"
"1530209849930";"-5.0"
"1530209849931";"-6.0"
"1530209849931";"-7.0"
"1530209849931";"-9.0"
"1530209849931";"-10.0"
"1530209849931";"-11.0"
"1530209849951";"-12.0"
"1530209849952";"-13.0"
"1530209849972";"-14.0"
"1530209849973";"-15.0"
"1530209849973";"-16.0"
"1530209849973";"-17.0"
"1530209849973";"-18.0"
"1530209849973";"-19.0"
"1530209849973";"-20.0"
"1530209849974";"-21.0"
"1530209849974";"-22.0"
"1530209849974";"-23.0"
"1530209849997";"-24.0"
"1530209849997";"-25.0"
"1530209849997";"-26.0"
"1530209849997";"-27.0"
"1530209850018";"-28.0"
"1530209850019";"-29.0"
"1530209850040";"-28.0"
"1530209850061";"-27.0"
"1530209850061";"-26.0"
"1530209850082";"-25.0"
"1530209850082";"-24.0"
"1530209850082";"-23.0"
"1530209850082";"-22.0"
"1530209850103";"-21.0"
"1530209850104";"-20.0"
"1530209850104";"-19.0"
"1530209850104";"-18.0"
"1530209850125";"-17.0"
"1530209850126";"-16.0"
"1530209850126";"-15.0"
"1530209850126";"-14.0"
"1530209850126";"-13.0"
"1530209850147";"-12.0"
"1530209850147";"-11.0"
"1530209850168";"-10.0"
"1530209850168";"-9.0"
"1530209850222";"-10.0"
"1530209850222";"-11.0"
"1530209850249";"-12.0"
"1530209850270";"-13.0"
"1530209850271";"-14.0"
"1530209850271";"-15.0"
"1530209850271";"-16.0"
"1530209850271";"-18.0"
"1530209850271";"-19.0"
"1530209850271";"-20.0"
"1530209850271";"-22.0"
"1530209850271";"-24.0"
"1530209850271";"-26.0"
"1530209850271";"-28.0"
"1530209850272";"-30.0"
"1530209850272";"-32.0"
"1530209850272";"-35.0"
"1530209850272";"-37.0"
"1530209850272";"-40.0"
"1530209850272";"-42.0"
"1530209850272";"-45.0"
"1530209850272";"-48.0"
"1530209850272";"-51.0"
"1530209850273";"-54.0"
"1530209850273";"-57.0"
"1530209850273";"-60.0"
"1530209850273";"-63.0"
"1530209850273";"-66.0"
"1530209850294";"-69.0"
"1530209850294";"-72.0"
"1530209850294";"-75.0"
"1530209850294";"-78.0"
"1530209850294";"-82.0"
"1530209850294";"-85.0"
"1530209850294";"-88.0"
"1530209850315";"-91.0"
"1530209850315";"-93.0"
"1530209850315";"-96.0"
"1530209850315";"-99.0"
"1530209850316";"-102.0"
"1530209850336";"-104.0"
"1530209850337";"-106.0"
"1530209850337";"-108.0"
"1530209850337";"-110.0"
"1530209850337";"-111.0"
"1530209850338";"-112.0"
"1530209850338";"-113.0"
"1530209850359";"-112.0"
"1530209850359";"-111.0"
"1530209850359";"-109.0"
"1530209850359";"-106.0"
"1530209850380";"-103.0"
"1530209850380";"-99.0"
"1530209850380";"-95.0"
"1530209850380";"-89.0"
"1530209850380";"-84.0"
"1530209850401";"-78.0"
"1530209850401";"-71.0"
"1530209850401";"-65.0"
"1530209850402";"-58.0"
"1530209850402";"-51.0"
"1530209850402";"-44.0"
"1530209850402";"-37.0"
"1530209850402";"-30.0"
"1530209850402";"-23.0"
"1530209850402";"-16.0"
"1530209850423";"-9.0"
"1530209850423";"-3.0"
"1530209850423";"2.0"
"1530209850444";"8.0"
"1530209850444";"14.0"
"1530209850444";"19.0"
"1530209850445";"25.0"
"1530209850445";"30.0"
"1530209850445";"34.0"
"1530209850445";"39.0"
"1530209850447";"43.0"
"1530209850468";"48.0"
"1530209850468";"52.0"
"1530209850468";"55.0"
"1530209850468";"59.0"
"1530209850468";"62.0"
"1530209850468";"66.0"
"1530209850469";"69.0"
"1530209850489";"72.0"
"1530209850490";"75.0"
"1530209850490";"77.0"
"1530209850490";"80.0"
"1530209850490";"83.0"
"1530209850511";"85.0"
"1530209850511";"87.0"
"1530209850511";"89.0"
"1530209850511";"91.0"
"1530209850511";"92.0"
"1530209850511";"94.0"
"1530209850511";"95.0"
"1530209850512";"96.0"
"1530209850533";"97.0"
"1530209850533";"98.0"
"1530209850533";"99.0"
"1530209850554";"98.0"
"1530209850575";"97.0"
"1530209850575";"96.0"
"1530209850575";"95.0"
"1530209850576";"94.0"
"1530209850576";"93.0"
"1530209850596";"92.0"
"1530209850597";"91.0"
"1530209850598";"90.0"
"1530209850598";"88.0"
"1530209850598";"87.0"
"1530209850599";"86.0"
"1530209850619";"85.0"
"1530209850619";"83.0"
"1530209850620";"82.0"
"1530209850620";"80.0"
"1530209850620";"79.0"
"1530209850620";"78.0"
"1530209850620";"76.0"
"1530209850620";"75.0"
"1530209850620";"73.0"
"1530209850641";"72.0"
"1530209850641";"70.0"
"1530209850641";"69.0"
"1530209850641";"68.0"
"1530209850641";"66.0"
"1530209850641";"65.0"
"1530209850641";"63.0"
"1530209850664";"62.0"
"1530209850664";"61.0"
"1530209850664";"59.0"
"1530209850664";"58.0"
"1530209850664";"56.0"
"1530209850685";"55.0"
"1530209850685";"53.0"
"1530209850685";"52.0"
"1530209850685";"51.0"
"1530209850685";"49.0"
"1530209850685";"48.0"
"1530209850685";"47.0"
"1530209850706";"46.0"
"1530209850706";"44.0"
"1530209850706";"43.0"
"1530209850706";"41.0"
"1530209850706";"40.0"
"1530209850706";"39.0"
"1530209850706";"37.0"
"1530209850707";"36.0"
"1530209850708";"34.0"
"1530209850729";"33.0"
"1530209850730";"31.0"
"1530209850730";"30.0"
"1530209850730";"28.0"
"1530209850751";"27.0"
"1530209850751";"25.0"
"1530209850751";"24.0"
"1530209850751";"22.0"
"1530209850751";"21.0"
"1530209850752";"19.0"
"1530209850752";"18.0"
"1530209850752";"16.0"
"1530209850772";"14.0"
"1530209850772";"13.0"
"1530209850773";"11.0"
"1530209850773";"10.0"
"1530209850773";"8.0"
"1530209850773";"6.0"
"1530209850794";"5.0"
"1530209850797";"3.0"
"1530209850797";"1.0"
"1530209850797";"0.0"
"1530209850797";"-2.0"
"1530209850797";"-3.0"
"1530209850818";"-5.0"
"1530209850819";"-7.0"
"1530209850819";"-8.0"
"1530209850819";"-10.0"
"1530209850819";"-12.0"
"1530209850819";"-14.0"
"1530209850840";"-15.0"
"1530209850840";"-17.0"
"1530209850840";"-19.0"
"1530209850841";"-20.0"
"1530209850841";"-22.0"
"1530209850841";"-23.0"
"1530209850841";"-25.0"
"1530209850841";"-26.0"
"1530209850841";"-28.0"
"1530209850841";"-29.0"
"1530209850862";"-30.0"
"1530209850862";"-31.0"
"1530209850862";"-32.0"
"1530209850862";"-33.0"
"1530209850862";"-34.0"
"1530209850883";"-35.0"
"1530209850883";"-36.0"
"1530209850883";"-37.0"
"1530209850883";"-38.0"
"1530209850883";"-39.0"
"1530209850904";"-40.0"
"1530209850904";"-41.0"
"1530209850904";"-42.0"
"1530209850905";"-43.0"
"1530209850926";"-44.0"
"1530209850928";"-45.0"
"1530209850928";"-46.0"
"1530209850928";"-47.0"
"1530209850929";"-48.0"
"1530209850949";"-49.0"
"1530209850950";"-50.0"
"1530209850950";"-51.0"
"1530209850950";"-52.0"
"1530209850950";"-53.0"
"1530209850950";"-54.0"
"1530209850972";"-55.0"
"1530209850992";"-56.0"
"1530209850994";"-57.0"
"1530209850994";"-58.0"
"1530209850994";"-59.0"
"1530209850994";"-60.0"
"1530209851014";"-61.0"
"1530209851015";"-60.0"
"1530209851035";"-59.0"
"1530209851036";"-58.0"
"1530209851058";"-57.0"
"1530209851058";"-56.0"
"1530209851058";"-55.0"
"1530209851058";"-54.0"
"1530209851059";"-53.0"
"1530209851079";"-51.0"
"1530209851080";"-50.0"
"1530209851080";"-48.0"
"1530209851080";"-46.0"
"1530209851080";"-44.0"
"1530209851080";"-42.0"
"1530209851101";"-40.0"
"1530209851101";"-38.0"
"1530209851101";"-36.0"
"1530209851101";"-34.0"
"1530209851101";"-32.0"
"1530209851101";"-30.0"
"1530209851101";"-28.0"
"1530209851102";"-26.0"
"1530209851102";"-24.0"
"1530209851123";"-22.0"
"1530209851124";"-20.0"
"1530209851124";"-19.0"
"1530209851124";"-17.0"
"1530209851124";"-15.0"
"1530209851124";"-13.0"
"1530209851144";"-11.0"
"1530209851145";"-10.0"
"1530209851145";"-8.0"
"1530209851165";"-7.0"
"1530209851166";"-5.0"
"1530209851166";"-4.0"
"1530209851166";"-3.0"
"1530209851166";"-1.0"
"1530209851166";"0.0"
"1530209851166";"1.0"
"1530209851166";"2.0"
"1530209851166";"3.0"
"1530209851218";"4.0"
"1530209851219";"5.0"
"1530209851240";"6.0"
"1530209851241";"7.0"
"1530209851262";"8.0"
"1530209851262";"9.0"
"1530209851262";"10.0"
"1530209851262";"11.0"
"1530209851283";"12.0"
"1530209851284";"13.0"
"1530209851284";"14.0"
"1530209851284";"15.0"
"1530209851284";"16.0"
"1530209851284";"17.0"
"1530209851285";"19.0"
"1530209851285";"20.0"
"1530209851285";"22.0"
"1530209851285";"23.0"
"1530209851285";"25.0"
"1530209851285";"26.0"
"1530209851285";"27.0"
"1530209851286";"29.0"
"1530209851286";"30.0"
"1530209851286";"32.0"
"1530209851286";"33.0"
"1530209851307";"35.0"
"1530209851307";"36.0"
"1530209851307";"38.0"
"1530209851307";"39.0"
"1530209851308";"41.0"
"1530209851309";"42.0"
"1530209851329";"43.0"
"1530209851330";"45.0"
"1530209851330";"46.0"
"1530209851330";"47.0"
"1530209851330";"48.0"
"1530209851330";"49.0"
"1530209851351";"50.0"
"1530209851351";"51.0"
"1530209851351";"52.0"
"1530209851351";"53.0"
"1530209851351";"54.0"
"1530209851351";"55.0"
"1530209851372";"56.0"
"1530209851372";"57.0"
"1530209851372";"58.0"
"1530209851414";"57.0"
"1530209851435";"56.0"
"1530209851435";"55.0"
"1530209851435";"54.0"
"1530209851436";"53.0"
"1530209851456";"52.0"
"1530209851457";"51.0"
"1530209851457";"50.0"
"1530209851457";"49.0"
"1530209851478";"48.0"
"1530209851478";"47.0"
"1530209851478";"46.0"
"1530209851478";"44.0"
"1530209851478";"43.0"
"1530209851478";"41.0"
"1530209851478";"39.0"
"1530209851479";"38.0"
"1530209851479";"36.0"
"1530209851499";"34.0"
"1530209851500";"32.0"
"1530209851500";"30.0"
"1530209851500";"28.0"
"1530209851500";"26.0"
"1530209851500";"24.0"
"1530209851500";"23.0"
"1530209851500";"21.0"
"1530209851500";"19.0"
"1530209851521";"17.0"
"1530209851523";"15.0"
"1530209851523";"14.0"
"1530209851523";"12.0"
"1530209851523";"10.0"
"1530209851523";"9.0"
"1530209851544";"7.0"
"1530209851544";"6.0"
"1530209851544";"4.0"
"1530209851565";"3.0"
"1530209851565";"2.0"
"1530209851565";"1.0"
"1530209851565";"0.0"
"1530209851565";"-1.0"
"1530209851565";"-2.0"
"1530209851565";"-3.0"
"1530209851565";"-4.0"
"1530209851565";"-5.0"
"1530209851586";"-6.0"
"1530209851586";"-7.0"
"1530209851586";"-8.0"
"1530209851587";"-9.0"
"1530209851587";"-10.0"
"1530209851587";"-11.0"
"1530209851588";"-12.0"
"1530209851608";"-13.0"
"1530209851608";"-14.0"
"1530209851609";"-15.0"
"1530209851609";"-16.0"
"1530209851629";"-17.0"
"1530209851630";"-18.0"
"1530209851630";"-19.0"
"1530209851650";"-20.0"
"1530209851651";"-21.0"
"1530209851653";"-22.0"
"1530209851674";"-23.0"
"1530209851696";"-22.0"
"1530209851717";"-21.0"
"1530209851717";"-20.0"
"1530209851718";"-19.0"
"1530209851739";"-18.0"
"1530209851739";"-17.0"
"1530209851739";"-16.0"
"1530209851739";"-15.0"
"1530209851760";"-14.0"
"1530209851760";"-13.0"
"1530209851760";"-12.0"
"1530209851760";"-11.0"
"1530209851760";"-10.0"
"1530209851781";"-9.0"
"1530209851781";"-8.0"
"1530209851781";"-7.0"
"1530209851782";"-6.0"
"1530209851803";"-5.0"
"1530209851803";"-4.0"
"1530209851824";"-3.0"
"1530209851824";"-2.0"
"1530209851848";"-1.0"
"1530209851849";"0.0"
"1530209851872";"1.0"
"1530209851873";"2.0"
"1530209851894";"3.0"
"1530209851914";"4.0"
"1530209851936";"5.0"
"1530209851957";"6.0"
"1530209852020";"7.0"
"1530209852020";"8.0"
"1530209852041";"9.0"
"1530209852065";"8.0"
"1530209852087";"7.0"
"1530209852108";"6.0"
"1530209852108";"5.0"
"1530209852108";"4.0"
"1530209852108";"3.0"
"1530209852129";"2.0"
"1530209852149";"1.0"
"1530209852170";"0.0"
"1530209852192";"1.0"
"1530209852193";"2.0"
"1530209852193";"3.0"
"1530209852194";"4.0"
"1530209852194";"5.0"
"1530209852214";"6.0"
"1530209852215";"7.0"
"1530209852215";"8.0"
"1530209852215";"9.0"
"1530209852215";"10.0"
"1530209852215";"11.0"
"1530209852238";"12.0"
"1530209852238";"13.0"
"1530209852238";"14.0"
"1530209852238";"16.0"
"1530209852238";"17.0"
"1530209852238";"18.0"
"1530209852239";"19.0"
"1530209852260";"20.0"
"1530209852260";"22.0"
"1530209852280";"23.0"
"1530209852281";"24.0"
"1530209852281";"25.0"
"1530209852281";"27.0"
"1530209852281";"28.0"
"1530209852281";"29.0"
"1530209852281";"31.0"
"1530209852281";"32.0"
"1530209852281";"33.0"
"1530209852282";"34.0"
"1530209852282";"36.0"
"1530209852282";"37.0"
"1530209852282";"38.0"
"1530209852303";"39.0"
"1530209852303";"40.0"
"1530209852303";"41.0"
"1530209852303";"42.0"
"1530209852303";"43.0"
"1530209852304";"44.0"
"1530209852324";"45.0"
"1530209852345";"46.0"
"1530209852366";"45.0"
"1530209852366";"44.0"
"1530209852387";"43.0"
"1530209852387";"42.0"
"1530209852390";"41.0"
"1530209852390";"40.0"
"1530209852411";"39.0"
"1530209852412";"38.0"
"1530209852412";"37.0"
"1530209852433";"36.0"
"1530209852433";"35.0"
"1530209852433";"34.0"
"1530209852454";"33.0"
"1530209852454";"32.0"
"1530209852454";"31.0"
"1530209852475";"30.0"
"1530209852475";"29.0"
"1530209852475";"28.0"
"1530209852476";"27.0"
"1530209852476";"26.0"
"1530209852476";"25.0"
"1530209852476";"24.0"
"1530209852476";"23.0"
"1530209852476";"22.0"
"1530209852476";"21.0"
"1530209852476";"20.0"
"1530209852476";"19.0"
"1530209852477";"18.0"
"1530209852497";"17.0"
"1530209852497";"16.0"
"1530209852497";"15.0"
"1530209852497";"14.0"
"1530209852518";"13.0"
"1530209852518";"12.0"
"1530209852519";"11.0"
"1530209852520";"10.0"
"1530209852541";"9.0"
"1530209852541";"8.0"
"1530209852541";"7.0"
"1530209852541";"6.0"
"1530209852541";"5.0"
"1530209852562";"4.0"
"1530209852562";"3.0"
"1530209852563";"2.0"
"1530209852563";"1.0"
"1530209852563";"0.0"
"1530209852584";"-1.0"
"1530209852584";"-2.0"
"1530209852584";"-3.0"
"1530209852587";"-4.0"
"1530209852609";"-5.0"
"1530209852609";"-6.0"
"1530209852609";"-7.0"
"1530209852630";"-8.0"
"1530209852630";"-9.0"
"1530209852630";"-10.0"
"1530209852651";"-11.0"
"1530209852653";"-12.0"
"1530209852674";"-13.0"
"1530209852674";"-14.0"
"1530209852674";"-15.0"
"1530209852695";"-16.0"
"1530209852695";"-17.0"
"1530209852695";"-18.0"
"1530209852716";"-19.0"
"1530209852716";"-20.0"
"1530209852737";"-21.0"
"1530209852737";"-22.0"
"1530209852737";"-23.0"
"1530209852758";"-24.0"
"1530209852758";"-25.0"
"1530209852758";"-26.0"
"1530209852758";"-27.0"
"1530209852759";"-28.0"
"1530209852779";"-29.0"
"1530209852780";"-30.0"
"1530209852800";"-31.0"
"1530209852800";"-32.0"
"1530209852801";"-33.0"
"1530209852801";"-34.0"
"1530209852801";"-35.0"
"1530209852821";"-36.0"
"1530209852821";"-37.0"
"1530209852822";"-38.0"
"1530209852822";"-39.0"
"1530209852822";"-40.0"
"1530209852822";"-41.0"
"1530209852822";"-42.0"
"1530209852843";"-43.0"
"1530209852843";"-44.0"
"1530209852843";"-45.0"
"1530209852844";"-46.0"
"1530209852846";"-47.0"
"1530209852867";"-48.0"
"1530209852867";"-49.0"
"1530209852868";"-50.0"
"1530209852868";"-51.0"
"1530209852868";"-52.0"
"1530209852889";"-53.0"
"1530209852889";"-54.0"
"1530209852889";"-55.0"
"1530209852910";"-56.0"
"1530209852911";"-57.0"
"1530209852911";"-58.0"
"1530209852935";"-59.0"
"1530209852935";"-60.0"
"1530209852935";"-61.0"
"1530209852935";"-62.0"
"1530209852956";"-63.0"
"1530209852956";"-64.0"
"1530209852956";"-65.0"
"1530209852998";"-64.0"
"1530209852998";"-63.0"
"1530209853019";"-62.0"
"1530209853040";"-61.0"
"1530209853061";"-60.0"
"1530209853082";"-59.0"
"1530209853082";"-58.0"
"1530209853104";"-57.0"
"1530209853104";"-56.0"
"1530209853126";"-55.0"
"1530209853126";"-54.0"
"1530209853167";"-53.0"
"1530209853253";"-52.0"
"1530209853273";"-51.0"
"1530209853274";"-50.0"
"1530209853274";"-49.0"
"1530209853274";"-48.0"
"1530209853274";"-47.0"
"1530209853275";"-46.0"
"1530209853275";"-45.0"
"1530209853275";"-44.0"
"1530209853275";"-43.0"
"1530209853276";"-42.0"
"1530209853276";"-41.0"
"1530209853276";"-40.0"
"1530209853276";"-39.0"
"1530209853276";"-38.0"
"1530209853297";"-37.0"
"1530209853297";"-36.0"
"1530209853297";"-35.0"
"1530209853297";"-34.0"
"1530209853297";"-33.0"
"1530209853297";"-32.0"
"1530209853318";"-31.0"
"1530209853318";"-30.0"
"1530209853318";"-29.0"
"1530209853319";"-28.0"
"1530209853319";"-27.0"
"1530209853319";"-26.0"
"1530209853340";"-25.0"
"1530209853340";"-24.0"
"1530209853340";"-23.0"
"1530209853340";"-22.0"
"1530209853340";"-21.0"
"1530209853361";"-20.0"
"1530209853362";"-19.0"
"1530209853362";"-18.0"
"1530209853362";"-17.0"
"1530209853362";"-16.0"
"1530209853363";"-15.0"
"1530209853383";"-14.0"
"1530209853384";"-13.0"
"1530209853386";"-12.0"
"1530209853386";"-11.0"
"1530209853407";"-10.0"
"1530209853407";"-9.0"
"1530209853408";"-8.0"
"1530209853428";"-7.0"
"1530209853429";"-6.0"
"1530209853449";"-5.0"
"1530209853449";"-4.0"
"1530209853450";"-3.0"
"1530209853450";"-2.0"
"1530209853470";"-1.0"
"1530209853491";"0.0"
"1530209853492";"1.0"
"1530209853513";"2.0"
"1530209853513";"3.0"
"1530209853536";"2.0"
"1530209853537";"1.0"
"1530209853558";"0.0"
"1530209853558";"-1.0"
"1530209853558";"-2.0"
"1530209853558";"-3.0"
"1530209853558";"-4.0"
"1530209853579";"-5.0"
"1530209853579";"-6.0"
"1530209853579";"-7.0"
"1530209853579";"-8.0"
"1530209853601";"-9.0"
"1530209853601";"-10.0"
"1530209853601";"-11.0"
"1530209853601";"-12.0"
"1530209853602";"-13.0"
"1530209853602";"-14.0"
"1530209853622";"-15.0"
"1530209853623";"-16.0"
"1530209853623";"-17.0"
"1530209853623";"-18.0"
"1530209853623";"-19.0"
"1530209853644";"-20.0"
"1530209853644";"-21.0"
"1530209853644";"-22.0"
"1530209853644";"-23.0"
"1530209853644";"-24.0"
"1530209853665";"-25.0"
"1530209853665";"-26.0"
"1530209853665";"-27.0"
"1530209853686";"-26.0"
"1530209853687";"-25.0"
"1530209853707";"-24.0"
"1530209853708";"-23.0"
"1530209853708";"-22.0"
"1530209853708";"-21.0"
"1530209853708";"-20.0"
"1530209853728";"-19.0"
"1530209853729";"-18.0"
"1530209853729";"-17.0"
"1530209853730";"-16.0"
"1530209853730";"-14.0"
"1530209853730";"-13.0"
"1530209853730";"-12.0"
"1530209853730";"-11.0"
"1530209853730";"-9.0"
"1530209853730";"-8.0"
"1530209853751";"-7.0"
"1530209853751";"-6.0"
"1530209853751";"-5.0"
"1530209853751";"-4.0"
"1530209853751";"-2.0"
"1530209853752";"-1.0"
"1530209853772";"0.0"
"1530209853773";"1.0"
"1530209853773";"2.0"
"1530209853794";"3.0"
"1530209853798";"4.0"
"1530209853798";"5.0"
"1530209853819";"6.0"
"1530209853819";"7.0"
"1530209853819";"8.0"
"1530209853840";"9.0"
"1530209853863";"8.0"
"1530209853863";"7.0"
"1530209853883";"6.0"
"1530209853884";"5.0"
"1530209853884";"4.0"
"1530209853884";"3.0"
"1530209853905";"2.0"
"1530209853905";"1.0"
"1530209853905";"0.0"
"1530209853926";"-1.0"
"1530209853926";"-2.0"
"1530209853929";"-3.0"
"1530209853929";"-4.0"
"1530209853929";"-5.0"
"1530209853929";"-6.0"
"1530209853950";"-7.0"
"1530209853951";"-8.0"
"1530209853951";"-9.0"
"1530209853951";"-10.0"
"1530209853951";"-11.0"
"1530209853951";"-12.0"
"1530209853972";"-14.0"
"1530209853972";"-15.0"
"1530209853972";"-16.0"
"1530209853972";"-17.0"
"1530209853972";"-19.0"
"1530209853972";"-20.0"
"1530209853972";"-21.0"
"1530209853994";"-23.0"
"1530209853994";"-24.0"
"1530209853994";"-26.0"
"1530209853994";"-27.0"
"1530209853994";"-29.0"
"1530209854015";"-30.0"
"1530209854015";"-32.0"
"1530209854015";"-33.0"
"1530209854015";"-35.0"
"1530209854036";"-36.0"
"1530209854036";"-37.0"
"1530209854036";"-39.0"
"1530209854036";"-40.0"
"1530209854036";"-41.0"
"1530209854036";"-43.0"
"1530209854036";"-44.0"
"1530209854036";"-45.0"
"1530209854037";"-47.0"
"1530209854057";"-48.0"
"1530209854057";"-49.0"
"1530209854059";"-51.0"
"1530209854059";"-52.0"
"1530209854059";"-53.0"
"1530209854059";"-55.0"
"1530209854080";"-56.0"
"1530209854080";"-58.0"
"1530209854080";"-59.0"
"1530209854080";"-61.0"
"1530209854080";"-62.0"
"1530209854080";"-64.0"
"1530209854080";"-65.0"
"1530209854081";"-67.0"
"1530209854081";"-68.0"
"1530209854102";"-70.0"
"1530209854102";"-71.0"
"1530209854102";"-73.0"
"1530209854123";"-74.0"
"1530209854123";"-76.0"
"1530209854123";"-78.0"
"1530209854123";"-79.0"
"1530209854125";"-80.0"
"1530209854125";"-82.0"
"1530209854125";"-83.0"
"1530209854125";"-84.0"
"1530209854125";"-85.0"
"1530209854146";"-86.0"
"1530209854146";"-85.0"
"1530209854173";"-84.0"
"1530209854174";"-83.0"
"1530209854174";"-82.0"
"1530209854194";"-80.0"
"1530209854195";"-77.0"
"1530209854215";"-74.0"
"1530209854215";"-71.0"
"1530209854216";"-68.0"
"1530209854216";"-64.0"
"1530209854216";"-59.0"
"1530209854216";"-55.0"
"1530209854217";"-50.0"
"1530209854217";"-45.0"
"1530209854217";"-39.0"
"1530209854254";"-33.0"
"1530209854255";"-28.0"
"1530209854255";"-22.0"
"1530209854275";"-15.0"
"1530209854276";"-9.0"
"1530209854276";"-3.0"
"1530209854276";"2.0"
"1530209854276";"8.0"
"1530209854276";"14.0"
"1530209854276";"20.0"
"1530209854276";"26.0"
"1530209854276";"32.0"
"1530209854276";"37.0"
"1530209854297";"42.0"
"1530209854297";"48.0"
"1530209854297";"53.0"
"1530209854297";"58.0"
"1530209854298";"62.0"
"1530209854298";"67.0"
"1530209854299";"71.0"
"1530209854299";"74.0"
"1530209854299";"78.0"
"1530209854299";"81.0"
"1530209854299";"84.0"
"1530209854299";"86.0"
"1530209854299";"88.0"
"1530209854299";"89.0"
"1530209854299";"91.0"
"1530209854299";"92.0"
"1530209854300";"93.0"
"1530209854300";"92.0"
"1530209854321";"91.0"
"1530209854321";"90.0"
"1530209854322";"89.0"
"1530209854322";"88.0"
"1530209854322";"87.0"
"1530209854343";"86.0"
"1530209854343";"85.0"
"1530209854343";"84.0"
"1530209854343";"83.0"
"1530209854343";"82.0"
"1530209854343";"81.0"
"1530209854344";"80.0"
"1530209854364";"79.0"
"1530209854364";"78.0"
"1530209854365";"77.0"
"1530209854365";"76.0"
"1530209854365";"75.0"
"1530209854365";"74.0"
"1530209854365";"73.0"
"1530209854385";"72.0"
"1530209854386";"71.0"
"1530209854407";"70.0"
"1530209854407";"69.0"
"1530209854407";"68.0"
"1530209854407";"67.0"
"1530209854407";"66.0"
"1530209854407";"65.0"
"1530209854407";"64.0"
"1530209854408";"63.0"
"1530209854408";"61.0"
"1530209854428";"60.0"
"1530209854428";"59.0"
"1530209854428";"57.0"
"1530209854428";"56.0"
"1530209854428";"55.0"
"1530209854429";"53.0"
"1530209854429";"52.0"
"1530209854449";"50.0"
"1530209854449";"49.0"
"1530209854449";"47.0"
"1530209854450";"45.0"
"1530209854450";"43.0"
"1530209854450";"42.0"
"1530209854470";"40.0"
"1530209854471";"38.0"
"1530209854471";"36.0"
"1530209854471";"34.0"
"1530209854471";"32.0"
"1530209854471";"30.0"
"1530209854492";"28.0"
"1530209854492";"26.0"
"1530209854492";"24.0"
"1530209854492";"21.0"
"1530209854492";"19.0"
"1530209854492";"16.0"
"1530209854513";"14.0"
"1530209854514";"11.0"
"1530209854514";"8.0"
"1530209854514";"5.0"
"1530209854514";"2.0"
"1530209854515";"0.0"
"1530209854536";"-4.0"
"1530209854536";"-7.0"
"1530209854536";"-11.0"
"1530209854536";"-15.0"
"1530209854536";"-18.0"
"1530209854536";"-22.0"
"1530209854537";"-26.0"
"1530209854537";"-30.0"
"1530209854537";"-34.0"
"1530209854559";"-38.0"
"1530209854560";"-42.0"
"1530209854560";"-46.0"
"1530209854560";"-49.0"
"1530209854581";"-53.0"
"1530209854581";"-56.0"
"1530209854581";"-60.0"
"1530209854581";"-63.0"
"1530209854581";"-66.0"
"1530209854581";"-68.0"
"1530209854582";"-71.0"
"1530209854582";"-72.0"
"1530209854582";"-74.0"
"1530209854603";"-75.0"
"1530209854603";"-76.0"
"1530209854603";"-75.0"
"1530209854603";"-74.0"
"1530209854603";"-73.0"
"1530209854625";"-71.0"
"1530209854626";"-68.0"
"1530209854626";"-65.0"
"1530209854626";"-62.0"
"1530209854626";"-58.0"
"1530209854626";"-54.0"
"1530209854648";"-50.0"
"1530209854648";"-45.0"
"1530209854648";"-40.0"
"1530209854648";"-35.0"
"1530209854648";"-30.0"
"1530209854670";"-25.0"
"1530209854671";"-19.0"
"1530209854671";"-14.0"
"1530209854671";"-9.0"
"1530209854671";"-4.0"
"1530209854671";"0.0"
"1530209854671";"5.0"
"1530209854671";"10.0"
"1530209854672";"15.0"
"1530209854692";"19.0"
"1530209854692";"24.0"
"1530209854693";"28.0"
"1530209854693";"32.0"
"1530209854693";"36.0"
"1530209854693";"40.0"
"1530209854693";"43.0"
"1530209854713";"46.0"
"1530209854714";"49.0"
"1530209854714";"52.0"
"1530209854714";"54.0"
"1530209854714";"57.0"
"1530209854735";"59.0"
"1530209854735";"61.0"
"1530209854735";"63.0"
"1530209854735";"65.0"
"1530209854735";"66.0"
"1530209854736";"67.0"
"1530209854736";"68.0"
"1530209854756";"69.0"
"1530209854757";"70.0"
"1530209854757";"71.0"
"1530209854757";"72.0"
"1530209854777";"73.0"
"1530209854778";"74.0"
"1530209854778";"75.0"
"1530209854800";"76.0"
"1530209854800";"77.0"
"1530209854820";"78.0"
"1530209854863";"77.0"
"1530209854884";"76.0"
"1530209854884";"75.0"
"1530209854884";"74.0"
"1530209854905";"73.0"
"1530209854905";"72.0"
"1530209854905";"71.0"
"1530209854905";"70.0"
"1530209854906";"69.0"
"1530209854906";"68.0"
"1530209854906";"67.0"
"1530209854928";"66.0"
"1530209854928";"65.0"
"1530209854928";"64.0"
"1530209854928";"63.0"
"1530209854928";"62.0"
"1530209854949";"61.0"
"1530209854949";"60.0"
"1530209854949";"59.0"
"1530209854949";"58.0"
"1530209854949";"57.0"
"1530209854949";"56.0"
"1530209854970";"55.0"
"1530209854970";"54.0"
"1530209854970";"53.0"
"1530209854970";"52.0"
"1530209854970";"51.0"
"1530209854991";"50.0"
"1530209854991";"49.0"
"1530209854991";"48.0"
"1530209854992";"47.0"
"1530209854992";"46.0"
"1530209854993";"45.0"
"1530209854993";"44.0"
"1530209855014";"43.0"
"1530209855014";"42.0"
"1530209855014";"41.0"
"1530209855014";"40.0"
"1530209855035";"39.0"
"1530209855035";"38.0"
"1530209855035";"37.0"
"1530209855035";"36.0"
"1530209855035";"35.0"
"1530209855036";"34.0"
"1530209855036";"33.0"
"1530209855036";"32.0"
"1530209855057";"31.0"
"1530209855058";"30.0"
"1530209855058";"29.0"
"1530209855079";"28.0"
"1530209855079";"27.0"
"1530209855079";"26.0"
"1530209855080";"25.0"
"1530209855080";"24.0"
"1530209855080";"23.0"
"1530209855081";"22.0"
"1530209855081";"21.0"
"1530209855081";"20.0"
"1530209855081";"19.0"
"1530209855102";"18.0"
"1530209855102";"17.0"
"1530209855102";"16.0"
"1530209855102";"15.0"
"1530209855102";"14.0"
"1530209855102";"13.0"
"1530209855123";"12.0"
"1530209855123";"11.0"
"1530209855123";"10.0"
"1530209855123";"9.0"
"1530209855123";"8.0"
"1530209855124";"7.0"
"1530209855144";"6.0"
"1530209855145";"5.0"
"1530209855145";"4.0"
"1530209855145";"3.0"
"1530209855185";"2.0"
"1530209855185";"1.0"
"1530209855185";"0.0"
"1530209855206";"-1.0"
"1530209855206";"-2.0"
"1530209855206";"-3.0"
"1530209855228";"-4.0"
"1530209855228";"-5.0"
"1530209855228";"-6.0"
"1530209855228";"-7.0"
"1530209855228";"-8.0"
"1530209855228";"-9.0"
"1530209855228";"-10.0"
"1530209855228";"-11.0"
"1530209855229";"-12.0"
"1530209855229";"-13.0"
"1530209855229";"-14.0"
"1530209855229";"-15.0"
"1530209855229";"-16.0"
"1530209855229";"-17.0"
"1530209855250";"-18.0"
"1530209855271";"-19.0"
"1530209855271";"-20.0"
"1530209855272";"-21.0"
"1530209855272";"-22.0"
"1530209855314";"-21.0"
"1530209855335";"-20.0"
"1530209855335";"-19.0"
"1530209855335";"-18.0"
"1530209855356";"-17.0"
"1530209855356";"-16.0"
"1530209855357";"-15.0"
"1530209855377";"-14.0"
"1530209855378";"-13.0"
"1530209855378";"-12.0"
"1530209855399";"-11.0"
"1530209855400";"-10.0"
"1530209855400";"-9.0"
"1530209855420";"-8.0"
"1530209855421";"-7.0"
"1530209855421";"-6.0"
"1530209855421";"-5.0"
"1530209855421";"-4.0"
"1530209855421";"-3.0"
"1530209855421";"-2.0"
"1530209855442";"0.0"
"1530209855442";"2.0"
"1530209855442";"3.0"
"1530209855442";"5.0"
"1530209855442";"6.0"
"1530209855463";"8.0"
"1530209855464";"10.0"
"1530209855464";"12.0"
"1530209855464";"14.0"
"1530209855464";"16.0"
"1530209855464";"18.0"
"1530209855464";"20.0"
"1530209855465";"22.0"
"1530209855486";"24.0"
"1530209855486";"26.0"
"1530209855486";"28.0"
"1530209855486";"30.0"
"1530209855486";"32.0"
"1530209855487";"33.0"
"1530209855507";"35.0"
"1530209855508";"37.0"
"1530209855508";"38.0"
"1530209855508";"40.0"
"1530209855508";"41.0"
"1530209855508";"42.0"
"1530209855508";"44.0"
"1530209855531";"45.0"
"1530209855532";"46.0"
"1530209855532";"47.0"
"1530209855532";"48.0"
"1530209855532";"49.0"
"1530209855532";"50.0"
"1530209855553";"51.0"
"1530209855554";"52.0"
"1530209855554";"53.0"
"1530209855554";"54.0"
"1530209855576";"55.0"
"1530209855576";"56.0"
"1530209855597";"55.0"
"1530209855619";"54.0"
"1530209855619";"53.0"
"1530209855619";"52.0"
"1530209855640";"51.0"
"1530209855640";"50.0"
"1530209855640";"49.0"
"1530209855640";"48.0"
"1530209855641";"47.0"
"1530209855641";"45.0"
"1530209855663";"44.0"
"1530209855663";"43.0"
"1530209855663";"42.0"
"1530209855663";"40.0"
"1530209855663";"39.0"
"1530209855684";"37.0"
"1530209855684";"36.0"
"1530209855684";"34.0"
"1530209855684";"32.0"
"1530209855684";"31.0"
"1530209855684";"29.0"
"1530209855684";"27.0"
"1530209855705";"26.0"
"1530209855705";"24.0"
"1530209855705";"22.0"
"1530209855705";"21.0"
"1530209855705";"19.0"
"1530209855726";"17.0"
"1530209855726";"15.0"
"1530209855726";"14.0"
"1530209855727";"12.0"
"1530209855728";"10.0"
"1530209855728";"9.0"
"1530209855728";"7.0"
"1530209855748";"5.0"
"1530209855749";"4.0"
"1530209855749";"2.0"
"1530209855749";"1.0"
"1530209855749";"0.0"
"1530209855750";"-1.0"
"1530209855750";"-2.0"
"1530209855750";"-3.0"
"1530209855750";"-4.0"
"1530209855771";"-5.0"
"1530209855771";"-7.0"
"1530209855771";"-8.0"
"1530209855772";"-9.0"
"1530209855772";"-10.0"
"1530209855793";"-11.0"
"1530209855793";"-12.0"
"1530209855814";"-13.0"
"1530209855835";"-14.0"
"1530209855835";"-15.0"
"1530209855856";"-16.0"
"1530209855857";"-17.0"
"1530209855878";"-18.0"
"1530209855899";"-19.0"
"1530209855899";"-20.0"
"1530209855941";"-21.0"
"1530209855985";"-20.0"
"1530209856047";"-21.0"
"1530209856089";"-22.0"
"1530209856132";"-21.0"
"1530209856132";"-20.0"
"1530209856153";"-19.0"
"1530209856153";"-18.0"
"1530209856153";"-17.0"
"1530209856153";"-16.0"
"1530209856154";"-15.0"
"1530209856154";"-14.0"
"1530209856154";"-12.0"
"1530209856175";"-11.0"
"1530209856175";"-10.0"
"1530209856175";"-8.0"
"1530209856196";"-7.0"
"1530209856196";"-5.0"
"1530209856198";"-3.0"
"1530209856199";"-2.0"
"1530209856199";"0.0"
"1530209856199";"1.0"
"1530209856223";"3.0"
"1530209856223";"4.0"
"1530209856223";"6.0"
"1530209856244";"8.0"
"1530209856245";"9.0"
"1530209856266";"11.0"
"1530209856266";"13.0"
"1530209856266";"14.0"
"1530209856266";"16.0"
"1530209856266";"18.0"
"1530209856266";"19.0"
"1530209856266";"21.0"
"1530209856266";"22.0"
"1530209856266";"23.0"
"1530209856267";"25.0"
"1530209856287";"26.0"
"1530209856289";"27.0"
"1530209856289";"29.0"
"1530209856289";"30.0"
"1530209856289";"31.0"
"1530209856289";"32.0"
"1530209856289";"33.0"
"1530209856289";"34.0"
"1530209856290";"35.0"
"1530209856290";"36.0"
"1530209856290";"37.0"
"1530209856290";"38.0"
"1530209856290";"39.0"
"1530209856290";"40.0"
"1530209856311";"41.0"
"1530209856332";"42.0"
"1530209856353";"41.0"
"1530209856354";"40.0"
"1530209856379";"39.0"
"1530209856379";"38.0"
"1530209856379";"37.0"
"1530209856380";"36.0"
"1530209856380";"35.0"
"1530209856401";"34.0"
"1530209856402";"33.0"
"1530209856403";"32.0"
"1530209856403";"30.0"
"1530209856403";"29.0"
"1530209856403";"28.0"
"1530209856403";"27.0"
"1530209856403";"26.0"
"1530209856403";"24.0"
"1530209856424";"23.0"
"1530209856424";"22.0"
"1530209856424";"20.0"
"1530209856424";"19.0"
"1530209856425";"18.0"
"1530209856445";"16.0"
"1530209856445";"15.0"
"1530209856446";"14.0"
"1530209856446";"13.0"
"1530209856446";"11.0"
"1530209856446";"10.0"
"1530209856446";"9.0"
"1530209856468";"8.0"
"1530209856468";"6.0"
"1530209856468";"5.0"
"1530209856468";"4.0"
"1530209856468";"3.0"
"1530209856489";"2.0"
"1530209856489";"1.0"
"1530209856489";"0.0"
"1530209856489";"-1.0"
"1530209856489";"-2.0"
"1530209856489";"-3.0"
"1530209856510";"-4.0"
"1530209856510";"-5.0"
"1530209856510";"-6.0"
"1530209856510";"-7.0"
"1530209856532";"-8.0"
"1530209856532";"-9.0"
"1530209856553";"-10.0"
"1530209856554";"-11.0"
"1530209856574";"-12.0"
"1530209856595";"-13.0"
"1530209856617";"-14.0"
"1530209856617";"-13.0"
"1530209856638";"-14.0"
"1530209856638";"-13.0"
"1530209856660";"-12.0"
"1530209856702";"-11.0"
"1530209856702";"-12.0"
"1530209856702";"-11.0"
"1530209856745";"-10.0"
"1530209856745";"-9.0"
"1530209856769";"-8.0"
"1530209856790";"-7.0"
"1530209856811";"-6.0"
"1530209856832";"-5.0"
"1530209856896";"-4.0"
"1530209856896";"-3.0"
"1530209856896";"-2.0"
"1530209856917";"-1.0"
"1530209856917";"0.0"
"1530209856917";"1.0"
"1530209856917";"2.0"
"1530209856918";"3.0"
"1530209856918";"4.0"
"1530209856918";"5.0"
"1530209856938";"6.0"
"1530209856939";"7.0"
"1530209856939";"8.0"
"1530209856939";"9.0"
"1530209856961";"10.0"
"1530209856961";"11.0"
"1530209856961";"12.0"
"1530209856982";"13.0"
"1530209856982";"14.0"
"1530209856983";"15.0"
"1530209856983";"16.0"
"1530209856983";"17.0"
"1530209856983";"18.0"
"1530209857004";"19.0"
"1530209857004";"20.0"
"1530209857004";"21.0"
"1530209857004";"22.0"
"1530209857025";"23.0"
"1530209857025";"24.0"
"1530209857089";"23.0"
"1530209857089";"22.0"
"1530209857110";"21.0"
"1530209857131";"20.0"
"1530209857132";"19.0"
"1530209857134";"18.0"
"1530209857134";"17.0"
"1530209857135";"16.0"
"1530209857135";"15.0"
"1530209857156";"14.0"
"1530209857156";"13.0"
"1530209857179";"12.0"
"1530209857180";"11.0"
"1530209857180";"10.0"
"1530209857180";"9.0"
"1530209857200";"8.0"
"1530209857201";"7.0"
"1530209857201";"6.0"
"1530209857245";"5.0"
"1530209857245";"4.0"
"1530209857245";"3.0"
"1530209857268";"2.0"
"1530209857268";"1.0"
"1530209857289";"0.0"
"1530209857333";"-1.0"
"1530209857354";"-2.0"
"1530209857479";"-3.0"
"1530209857522";"-4.0"
"1530209857606";"-5.0"
"1530209857628";"-6.0"
"1530209857628";"-7.0"
"1530209857628";"-8.0"
"1530209857649";"-9.0"
"1530209857691";"-8.0"
"1530209857691";"-7.0"
"1530209857691";"-6.0"
"1530209857691";"-5.0"
"1530209857691";"-4.0"
"1530209857712";"-3.0"
"1530209857712";"-2.0"
"1530209857712";"-1.0"
"1530209857713";"0.0"
"1530209857735";"1.0"
"1530209857735";"2.0"
"1530209857735";"3.0"
"1530209857735";"4.0"
"1530209857735";"6.0"
"1530209857735";"7.0"
"1530209857756";"8.0"
"1530209857756";"9.0"
"1530209857756";"11.0"
"1530209857756";"12.0"
"1530209857756";"13.0"
"1530209857756";"14.0"
"1530209857757";"15.0"
"1530209857777";"16.0"
"1530209857777";"17.0"
"1530209857777";"18.0"
"1530209857777";"19.0"
"1530209857778";"20.0"
"1530209857778";"21.0"
"1530209857779";"22.0"
"1530209857800";"23.0"
"1530209857800";"24.0"
"1530209857800";"25.0"
"1530209857821";"26.0"
"1530209857821";"27.0"
"1530209857841";"28.0"
"1530209857842";"29.0"
"1530209857884";"28.0"
"1530209857905";"27.0"
"1530209857905";"26.0"
"1530209857905";"25.0"
"1530209857905";"24.0"
"1530209857926";"23.0"
"1530209857947";"22.0"
"1530209857947";"21.0"
"1530209857947";"20.0"
"1530209857948";"19.0"
"1530209857948";"18.0"
"1530209857948";"17.0"
"1530209857970";"16.0"
"1530209857970";"15.0"
"1530209857970";"14.0"
"1530209857971";"13.0"
"1530209857971";"12.0"
"1530209857971";"11.0"
"1530209857971";"10.0"
"1530209857991";"9.0"
"1530209857992";"8.0"
"1530209857993";"7.0"
"1530209857993";"6.0"
"1530209857993";"5.0"
"1530209857993";"4.0"
"1530209858014";"3.0"
"1530209858014";"2.0"
"1530209858035";"1.0"
"1530209858035";"0.0"
"1530209858056";"-1.0"
"1530209858057";"-2.0"
"1530209858078";"-3.0"
"1530209858078";"-2.0"
"1530209858142";"-1.0"
"1530209858183";"0.0"
"1530209858327";"-1.0"
"1530209858348";"-2.0"
"1530209858348";"-3.0"
"1530209858349";"-4.0"
"1530209858393";"-5.0"
"1530209858394";"-6.0"
"1530209858415";"-7.0"
"1530209858456";"-6.0"
"1530209858457";"-5.0"
"1530209858477";"-4.0"
"1530209858477";"-3.0"
"1530209858478";"-2.0"
"1530209858498";"-1.0"
"1530209858498";"0.0"
"1530209858498";"1.0"
"1530209858498";"2.0"
"1530209858499";"3.0"
"1530209858519";"4.0"
"1530209858519";"5.0"
"1530209858519";"6.0"
"1530209858519";"7.0"
"1530209858520";"8.0"
"1530209858521";"9.0"
"1530209858541";"10.0"
"1530209858541";"11.0"
"1530209858541";"12.0"
"1530209858541";"13.0"
"1530209858541";"14.0"
"1530209858542";"15.0"
"1530209858542";"16.0"
"1530209858542";"17.0"
"1530209858562";"18.0"
"1530209858583";"19.0"
"1530209858583";"20.0"
"1530209858583";"21.0"
"1530209858604";"22.0"
"1530209858625";"23.0"
"1530209858626";"22.0"
"1530209858626";"21.0"
"1530209858647";"20.0"
"1530209858647";"19.0"
"1530209858668";"18.0"
"1530209858669";"17.0"
"1530209858669";"16.0"
"1530209858669";"15.0"
"1530209858690";"14.0"
"1530209858691";"13.0"
"1530209858691";"12.0"
"1530209858712";"11.0"
"1530209858712";"10.0"
"1530209858712";"9.0"
"1530209858712";"8.0"
"1530209858712";"7.0"
"1530209858712";"6.0"
"1530209858733";"5.0"
"1530209858733";"4.0"
"1530209858733";"3.0"
"1530209858733";"2.0"
"1530209858733";"1.0"
"1530209858754";"0.0"
"1530209858754";"-1.0"
"1530209858754";"-2.0"
"1530209858754";"-3.0"
"1530209858754";"-4.0"
"1530209858754";"-5.0"
"1530209858755";"-6.0"
"1530209858755";"-7.0"
"1530209858755";"-8.0"
"1530209858775";"-9.0"
"1530209858796";"-10.0"
