"System Time Index";"BVP Data"
"1530208815192";"-1.0"
"1530208815243";"0.0"
"1530208815385";"1.0"
"1530208815468";"2.0"
"1530208815545";"3.0"
"1530208815785";"2.0"
"1530208815787";"1.0"
"1530208815789";"0.0"
"1530208815791";"-1.0"
"1530208815813";"-2.0"
"1530208815814";"-3.0"
"1530208815815";"-4.0"
"1530208815816";"-5.0"
"1530208815817";"-6.0"
"1530208815819";"-7.0"
"1530208815841";"-8.0"
"1530208815842";"-9.0"
"1530208815866";"-10.0"
"1530208815893";"-9.0"
"1530208815944";"-8.0"
"1530208815946";"-7.0"
"1530208815969";"-6.0"
"1530208815993";"-5.0"
"1530208816018";"-4.0"
"1530208816021";"-3.0"
"1530208816044";"-2.0"
"1530208816067";"-1.0"
"1530208816092";"0.0"
"1530208816191";"1.0"
"1530208816193";"2.0"
"1530208816215";"3.0"
"1530208816217";"4.0"
"1530208816290";"5.0"
"1530208816463";"6.0"
"1530208816486";"5.0"
"1530208816508";"4.0"
"1530208816511";"3.0"
"1530208816512";"2.0"
"1530208816536";"1.0"
"1530208816560";"0.0"
"1530208816633";"-1.0"
"1530208816659";"-2.0"
"1530208816707";"-3.0"
"1530208816755";"-2.0"
"1530208816880";"-3.0"
"1530208817067";"-2.0"
"1530208817089";"-1.0"
"1530208817091";"0.0"
"1530208817113";"1.0"
"1530208817138";"2.0"
"1530208817140";"3.0"
"1530208817141";"4.0"
"1530208817141";"5.0"
"1530208817142";"6.0"
"1530208817324";"7.0"
"1530208817348";"6.0"
"1530208817393";"5.0"
"1530208817394";"4.0"
"1530208817395";"3.0"
"1530208817396";"2.0"
"1530208817418";"1.0"
"1530208817440";"0.0"
"1530208817463";"-1.0"
"1530208817465";"-2.0"
"1530208817511";"-1.0"
"1530208817512";"-2.0"
"1530208817536";"-1.0"
"1530208817582";"-2.0"
"1530208817655";"-3.0"
"1530208817799";"-2.0"
"1530208817871";"-1.0"
"1530208817938";"-2.0"
"1530208817961";"-1.0"
"1530208818007";"0.0"
"1530208818030";"1.0"
"1530208818030";"2.0"
"1530208818052";"3.0"
"1530208818053";"4.0"
"1530208818054";"5.0"
"1530208818075";"6.0"
"1530208818098";"7.0"
"1530208818235";"6.0"
"1530208818257";"5.0"
"1530208818280";"4.0"
"1530208818282";"3.0"
"1530208818304";"2.0"
"1530208818326";"1.0"
"1530208818375";"0.0"
"1530208818489";"-1.0"
"1530208818513";"-2.0"
"1530208818573";"-3.0"
"1530208818596";"-4.0"
"1530208818691";"-3.0"
"1530208818757";"-2.0"
"1530208818780";"-1.0"
"1530208818897";"-2.0"
"1530208818919";"-1.0"
"1530208818946";"0.0"
"1530208818947";"1.0"
"1530208818969";"2.0"
"1530208818970";"3.0"
"1530208818971";"4.0"
"1530208818971";"5.0"
"1530208818993";"6.0"
"1530208819014";"7.0"
"1530208819146";"6.0"
"1530208819168";"5.0"
"1530208819169";"4.0"
"1530208819169";"3.0"
"1530208819191";"2.0"
"1530208819213";"1.0"
"1530208819213";"0.0"
"1530208819255";"-1.0"
"1530208819282";"-2.0"
"1530208819326";"-3.0"
"1530208819393";"-4.0"
"1530208819576";"-3.0"
"1530208819669";"-4.0"
"1530208819691";"-3.0"
"1530208819774";"-2.0"
"1530208819820";"-1.0"
"1530208819821";"-2.0"
"1530208819888";"-3.0"
"1530208819933";"-2.0"
"1530208819954";"-1.0"
"1530208819955";"0.0"
"1530208819955";"1.0"
"1530208819976";"2.0"
"1530208819976";"3.0"
"1530208819997";"4.0"
"1530208820000";"5.0"
"1530208820001";"6.0"
"1530208820021";"7.0"
"1530208820022";"8.0"
"1530208820175";"7.0"
"1530208820196";"6.0"
"1530208820200";"5.0"
"1530208820221";"4.0"
"1530208820222";"3.0"
"1530208820222";"2.0"
"1530208820243";"1.0"
"1530208820264";"0.0"
"1530208820332";"-1.0"
"1530208820376";"-2.0"
"1530208820377";"-3.0"
"1530208820399";"-4.0"
"1530208820506";"-3.0"
"1530208820549";"-2.0"
"1530208820745";"-3.0"
"1530208820790";"-2.0"
"1530208820791";"-1.0"
"1530208820792";"0.0"
"1530208820816";"1.0"
"1530208820837";"2.0"
"1530208820880";"1.0"
"1530208820923";"0.0"
"1530208820968";"-1.0"
"1530208821013";"-2.0"
"1530208821081";"-1.0"
"1530208821103";"0.0"
"1530208821125";"1.0"
"1530208821126";"2.0"
"1530208821129";"3.0"
"1530208821152";"4.0"
"1530208821152";"5.0"
"1530208821152";"6.0"
"1530208821153";"7.0"
"1530208821153";"8.0"
"1530208821306";"7.0"
"1530208821327";"6.0"
"1530208821351";"5.0"
"1530208821351";"4.0"
"1530208821373";"3.0"
"1530208821373";"2.0"
"1530208821397";"1.0"
"1530208821418";"0.0"
"1530208821506";"-1.0"
"1530208821571";"-2.0"
"1530208821593";"-3.0"
"1530208821615";"-4.0"
"1530208821616";"-5.0"
"1530208821637";"-6.0"
"1530208821682";"-5.0"
"1530208821703";"-4.0"
"1530208821724";"-3.0"
"1530208821751";"-2.0"
"1530208821752";"-1.0"
"1530208821773";"0.0"
"1530208821819";"1.0"
"1530208821840";"2.0"
"1530208821862";"1.0"
"1530208821906";"0.0"
"1530208821971";"-1.0"
"1530208821992";"-2.0"
"1530208821994";"-3.0"
"1530208822015";"-4.0"
"1530208822058";"-3.0"
"1530208822058";"-2.0"
"1530208822101";"-1.0"
"1530208822123";"0.0"
"1530208822277";"1.0"
"1530208822278";"2.0"
"1530208822298";"3.0"
"1530208822299";"4.0"
"1530208822300";"5.0"
"1530208822321";"6.0"
"1530208822321";"7.0"
"1530208822342";"8.0"
"1530208822470";"7.0"
"1530208822471";"6.0"
"1530208822471";"5.0"
"1530208822492";"4.0"
"1530208822493";"3.0"
"1530208822514";"2.0"
"1530208822514";"1.0"
"1530208822535";"0.0"
"1530208822557";"-1.0"
"1530208822558";"-2.0"
"1530208822579";"-3.0"
"1530208822604";"-4.0"
"1530208822712";"-3.0"
"1530208822738";"-4.0"
"1530208822760";"-3.0"
"1530208822761";"-4.0"
"1530208822783";"-3.0"
"1530208822812";"-4.0"
"1530208822842";"-3.0"
"1530208822930";"-4.0"
"1530208823014";"-3.0"
"1530208823036";"-2.0"
"1530208823058";"-1.0"
"1530208823101";"0.0"
"1530208823210";"-1.0"
"1530208823254";"-2.0"
"1530208823298";"-1.0"
"1530208823361";"-2.0"
"1530208823406";"-1.0"
"1530208823427";"0.0"
"1530208823428";"1.0"
"1530208823449";"2.0"
"1530208823450";"3.0"
"1530208823450";"4.0"
"1530208823451";"5.0"
"1530208823475";"6.0"
"1530208823496";"7.0"
"1530208823496";"8.0"
"1530208823562";"7.0"
"1530208823583";"6.0"
"1530208823628";"5.0"
"1530208823630";"4.0"
"1530208823651";"3.0"
"1530208823652";"2.0"
"1530208823673";"1.0"
"1530208823741";"0.0"
"1530208823804";"-1.0"
"1530208823847";"0.0"
"1530208823997";"-1.0"
"1530208824043";"-2.0"
"1530208824066";"-3.0"
"1530208824196";"-2.0"
"1530208824304";"-3.0"
"1530208824476";"-2.0"
"1530208824518";"-1.0"
"1530208824519";"0.0"
"1530208824541";"1.0"
"1530208824562";"2.0"
"1530208824562";"3.0"
"1530208824563";"4.0"
"1530208824563";"5.0"
"1530208824584";"6.0"
"1530208824584";"7.0"
"1530208824585";"8.0"
"1530208824765";"7.0"
"1530208824768";"6.0"
"1530208824769";"5.0"
"1530208824769";"4.0"
"1530208824769";"3.0"
"1530208824770";"2.0"
"1530208824791";"1.0"
"1530208824791";"0.0"
"1530208824834";"-1.0"
"1530208824858";"-2.0"
"1530208824882";"-3.0"
"1530208824926";"-4.0"
"1530208824947";"-5.0"
"1530208824968";"-6.0"
"1530208824990";"-7.0"
"1530208825033";"-8.0"
"1530208825055";"-7.0"
"1530208825077";"-6.0"
"1530208825077";"-5.0"
"1530208825098";"-4.0"
"1530208825119";"-3.0"
"1530208825120";"-2.0"
"1530208825144";"-1.0"
"1530208825210";"-2.0"
"1530208825231";"-3.0"
"1530208825252";"-4.0"
"1530208825276";"-5.0"
"1530208825297";"-6.0"
"1530208825319";"-7.0"
"1530208825343";"-8.0"
"1530208825364";"-7.0"
"1530208825386";"-6.0"
"1530208825386";"-5.0"
"1530208825407";"-4.0"
"1530208825428";"-3.0"
"1530208825450";"-2.0"
"1530208825471";"-1.0"
"1530208825476";"0.0"
"1530208825518";"1.0"
"1530208825563";"0.0"
"1530208825718";"1.0"
"1530208825781";"2.0"
"1530208825783";"3.0"
"1530208825804";"4.0"
"1530208825871";"5.0"
"1530208825893";"6.0"
"1530208825893";"7.0"
"1530208825935";"8.0"
"1530208825957";"9.0"
"1530208825978";"8.0"
"1530208825978";"7.0"
"1530208826001";"6.0"
"1530208826002";"5.0"
"1530208826022";"4.0"
"1530208826023";"3.0"
"1530208826044";"2.0"
"1530208826045";"1.0"
"1530208826067";"0.0"
"1530208826067";"-1.0"
"1530208826088";"-2.0"
"1530208826134";"-1.0"
"1530208826155";"0.0"
"1530208826199";"1.0"
"1530208826200";"0.0"
"1530208826221";"1.0"
"1530208826242";"0.0"
"1530208826286";"-1.0"
"1530208826307";"-2.0"
"1530208826416";"-3.0"
"1530208826458";"-4.0"
"1530208826458";"-5.0"
"1530208826481";"-6.0"
"1530208826482";"-7.0"
"1530208826503";"-8.0"
"1530208826524";"-9.0"
"1530208826524";"-10.0"
"1530208826524";"-11.0"
"1530208826525";"-12.0"
"1530208826526";"-13.0"
"1530208826548";"-14.0"
"1530208826548";"-15.0"
"1530208826569";"-16.0"
"1530208826612";"-15.0"
"1530208826613";"-14.0"
"1530208826634";"-13.0"
"1530208826634";"-12.0"
"1530208826655";"-11.0"
"1530208826656";"-10.0"
"1530208826656";"-9.0"
"1530208826656";"-8.0"
"1530208826656";"-7.0"
"1530208826656";"-6.0"
"1530208826656";"-5.0"
"1530208826656";"-4.0"
"1530208826657";"-3.0"
"1530208826657";"-2.0"
"1530208826679";"-1.0"
"1530208826680";"0.0"
"1530208826680";"1.0"
"1530208826681";"2.0"
"1530208826709";"3.0"
"1530208826710";"4.0"
"1530208826710";"5.0"
"1530208826731";"6.0"
"1530208826731";"7.0"
"1530208826731";"8.0"
"1530208826732";"9.0"
"1530208826779";"10.0"
"1530208826866";"9.0"
"1530208826867";"8.0"
"1530208826888";"7.0"
"1530208826888";"6.0"
"1530208826889";"5.0"
"1530208826910";"4.0"
"1530208826911";"3.0"
"1530208826911";"2.0"
"1530208826932";"1.0"
"1530208826933";"0.0"
"1530208826955";"-1.0"
"1530208826956";"-2.0"
"1530208826977";"-3.0"
"1530208827042";"-2.0"
"1530208827067";"-1.0"
"1530208827199";"-2.0"
"1530208827221";"-3.0"
"1530208827242";"-4.0"
"1530208827243";"-5.0"
"1530208827263";"-6.0"
"1530208827264";"-7.0"
"1530208827285";"-8.0"
"1530208827285";"-9.0"
"1530208827285";"-10.0"
"1530208827306";"-11.0"
"1530208827307";"-12.0"
"1530208827307";"-13.0"
"1530208827328";"-14.0"
"1530208827329";"-15.0"
"1530208827350";"-16.0"
"1530208827372";"-17.0"
"1530208827416";"-16.0"
"1530208827416";"-15.0"
"1530208827437";"-14.0"
"1530208827437";"-13.0"
"1530208827481";"-12.0"
"1530208827482";"-11.0"
"1530208827482";"-10.0"
"1530208827503";"-9.0"
"1530208827504";"-8.0"
"1530208827525";"-7.0"
"1530208827526";"-6.0"
"1530208827547";"-5.0"
"1530208827547";"-4.0"
"1530208827568";"-3.0"
"1530208827569";"-2.0"
"1530208827569";"-1.0"
"1530208827569";"0.0"
"1530208827590";"1.0"
"1530208827590";"2.0"
"1530208827612";"3.0"
"1530208827616";"4.0"
"1530208827616";"5.0"
"1530208827617";"6.0"
"1530208827617";"7.0"
"1530208827617";"8.0"
"1530208827618";"9.0"
"1530208827618";"10.0"
"1530208827639";"11.0"
"1530208827640";"12.0"
"1530208827795";"13.0"
"1530208827795";"12.0"
"1530208827795";"11.0"
"1530208827795";"10.0"
"1530208827795";"9.0"
"1530208827796";"8.0"
"1530208827796";"7.0"
"1530208827796";"6.0"
"1530208827796";"5.0"
"1530208827817";"4.0"
"1530208827817";"3.0"
"1530208827818";"2.0"
"1530208827818";"1.0"
"1530208827838";"0.0"
"1530208827839";"-1.0"
"1530208827860";"-2.0"
"1530208827860";"-3.0"
"1530208827860";"-4.0"
"1530208827881";"-5.0"
"1530208827882";"-6.0"
"1530208827882";"-7.0"
"1530208827882";"-8.0"
"1530208827883";"-9.0"
"1530208827903";"-10.0"
"1530208827904";"-11.0"
"1530208827904";"-12.0"
"1530208827946";"-13.0"
"1530208827967";"-12.0"
"1530208827988";"-13.0"
"1530208828012";"-14.0"
"1530208828033";"-15.0"
"1530208828033";"-14.0"
"1530208828119";"-15.0"
"1530208828142";"-14.0"
"1530208828163";"-13.0"
"1530208828164";"-12.0"
"1530208828185";"-11.0"
"1530208828206";"-10.0"
"1530208828227";"-9.0"
"1530208828248";"-8.0"
"1530208828248";"-7.0"
"1530208828269";"-6.0"
"1530208828273";"-5.0"
"1530208828294";"-4.0"
"1530208828315";"-3.0"
"1530208828315";"-2.0"
"1530208828315";"-1.0"
"1530208828336";"0.0"
"1530208828359";"1.0"
"1530208828360";"2.0"
"1530208828360";"3.0"
"1530208828360";"4.0"
"1530208828407";"5.0"
"1530208828449";"6.0"
"1530208828470";"5.0"
"1530208828512";"6.0"
"1530208828534";"7.0"
"1530208828555";"8.0"
"1530208828555";"9.0"
"1530208828555";"10.0"
"1530208828577";"11.0"
"1530208828577";"12.0"
"1530208828577";"13.0"
"1530208828622";"14.0"
"1530208828644";"15.0"
"1530208828644";"14.0"
"1530208828665";"13.0"
"1530208828686";"12.0"
"1530208828707";"11.0"
"1530208828708";"10.0"
"1530208828729";"9.0"
"1530208828750";"8.0"
"1530208828771";"7.0"
"1530208828773";"6.0"
"1530208828773";"5.0"
"1530208828773";"4.0"
"1530208828794";"3.0"
"1530208828795";"2.0"
"1530208828795";"1.0"
"1530208828816";"0.0"
"1530208828817";"-1.0"
"1530208828860";"-2.0"
"1530208828905";"-1.0"
"1530208829053";"-2.0"
"1530208829098";"-3.0"
"1530208829183";"-4.0"
"1530208829226";"-3.0"
"1530208829395";"-2.0"
"1530208829421";"-1.0"
"1530208829421";"0.0"
"1530208829442";"1.0"
"1530208829442";"2.0"
"1530208829443";"3.0"
"1530208829443";"4.0"
"1530208829443";"5.0"
"1530208829463";"6.0"
"1530208829464";"7.0"
"1530208829464";"8.0"
"1530208829485";"9.0"
"1530208829485";"10.0"
"1530208829485";"11.0"
"1530208829506";"12.0"
"1530208829506";"13.0"
"1530208829527";"14.0"
"1530208829571";"13.0"
"1530208829616";"12.0"
"1530208829616";"11.0"
"1530208829637";"10.0"
"1530208829659";"9.0"
"1530208829659";"8.0"
"1530208829681";"7.0"
"1530208829682";"6.0"
"1530208829702";"5.0"
"1530208829703";"4.0"
"1530208829703";"3.0"
"1530208829724";"2.0"
"1530208829724";"1.0"
"1530208829745";"0.0"
"1530208829795";"-1.0"
"1530208829816";"-2.0"
"1530208829820";"-3.0"
"1530208829861";"-4.0"
"1530208830055";"-3.0"
"1530208830226";"-4.0"
"1530208830226";"-3.0"
"1530208830226";"-4.0"
"1530208830291";"-3.0"
"1530208830312";"-2.0"
"1530208830313";"-1.0"
"1530208830334";"0.0"
"1530208830338";"1.0"
"1530208830338";"2.0"
"1530208830359";"3.0"
"1530208830360";"4.0"
"1530208830360";"5.0"
"1530208830361";"6.0"
"1530208830382";"7.0"
"1530208830383";"8.0"
"1530208830403";"9.0"
"1530208830426";"10.0"
"1530208830427";"11.0"
"1530208830469";"12.0"
"1530208830535";"11.0"
"1530208830577";"10.0"
"1530208830577";"9.0"
"1530208830598";"8.0"
"1530208830599";"7.0"
"1530208830599";"6.0"
"1530208830620";"5.0"
"1530208830620";"4.0"
"1530208830620";"3.0"
"1530208830621";"2.0"
"1530208830621";"1.0"
"1530208830621";"0.0"
"1530208830621";"-1.0"
"1530208830642";"-2.0"
"1530208830642";"-3.0"
"1530208830642";"-4.0"
"1530208830643";"-5.0"
"1530208830643";"-6.0"
"1530208830663";"-7.0"
"1530208830664";"-8.0"
"1530208830665";"-9.0"
"1530208830686";"-10.0"
"1530208830687";"-11.0"
"1530208830708";"-12.0"
"1530208830751";"-11.0"
"1530208830773";"-10.0"
"1530208830794";"-9.0"
"1530208830795";"-8.0"
"1530208830795";"-7.0"
"1530208830795";"-6.0"
"1530208830795";"-5.0"
"1530208830795";"-4.0"
"1530208830795";"-3.0"
"1530208830795";"-2.0"
"1530208830796";"-1.0"
"1530208830796";"0.0"
"1530208830798";"1.0"
"1530208830798";"2.0"
"1530208830819";"3.0"
"1530208830819";"4.0"
"1530208830840";"5.0"
"1530208830861";"6.0"
"1530208830882";"5.0"
"1530208830884";"4.0"
"1530208830884";"3.0"
"1530208830884";"2.0"
"1530208830905";"1.0"
"1530208830906";"0.0"
"1530208830906";"-1.0"
"1530208830929";"-2.0"
"1530208830929";"-3.0"
"1530208830951";"-4.0"
"1530208830952";"-5.0"
"1530208830953";"-6.0"
"1530208830954";"-7.0"
"1530208830954";"-8.0"
"1530208830954";"-9.0"
"1530208830975";"-10.0"
"1530208830997";"-9.0"
"1530208831018";"-8.0"
"1530208831039";"-7.0"
"1530208831039";"-6.0"
"1530208831040";"-5.0"
"1530208831060";"-4.0"
"1530208831061";"-3.0"
"1530208831061";"-2.0"
"1530208831061";"-1.0"
"1530208831082";"0.0"
"1530208831082";"1.0"
"1530208831125";"0.0"
"1530208831147";"-1.0"
"1530208831168";"-2.0"
"1530208831189";"-1.0"
"1530208831191";"0.0"
"1530208831212";"1.0"
"1530208831212";"2.0"
"1530208831212";"3.0"
"1530208831233";"4.0"
"1530208831233";"5.0"
"1530208831234";"6.0"
"1530208831234";"7.0"
"1530208831234";"8.0"
"1530208831255";"9.0"
"1530208831256";"10.0"
"1530208831256";"11.0"
"1530208831279";"12.0"
"1530208831280";"13.0"
"1530208831280";"14.0"
"1530208831387";"15.0"
"1530208831387";"14.0"
"1530208831410";"13.0"
"1530208831411";"12.0"
"1530208831432";"11.0"
"1530208831432";"10.0"
"1530208831453";"9.0"
"1530208831474";"8.0"
"1530208831474";"7.0"
"1530208831474";"6.0"
"1530208831474";"5.0"
"1530208831495";"4.0"
"1530208831500";"3.0"
"1530208831521";"2.0"
"1530208831522";"1.0"
"1530208831522";"0.0"
"1530208831564";"-1.0"
"1530208831564";"-2.0"
"1530208831564";"-3.0"
"1530208831585";"-4.0"
"1530208831608";"-5.0"
"1530208831838";"-4.0"
"1530208831839";"-3.0"
"1530208831839";"-2.0"
"1530208831840";"-1.0"
"1530208831883";"0.0"
"1530208831906";"1.0"
"1530208831906";"2.0"
"1530208831927";"3.0"
"1530208831950";"4.0"
"1530208831971";"5.0"
"1530208831994";"4.0"
"1530208832036";"3.0"
"1530208832036";"2.0"
"1530208832037";"1.0"
"1530208832058";"0.0"
"1530208832079";"-1.0"
"1530208832100";"-2.0"
"1530208832101";"-3.0"
"1530208832121";"-4.0"
"1530208832122";"-5.0"
"1530208832164";"-6.0"
"1530208832164";"-7.0"
"1530208832165";"-8.0"
"1530208832206";"-7.0"
"1530208832209";"-6.0"
"1530208832209";"-5.0"
"1530208832230";"-4.0"
"1530208832231";"-3.0"
"1530208832252";"-2.0"
"1530208832378";"-1.0"
"1530208832400";"0.0"
"1530208832442";"-1.0"
"1530208832463";"-2.0"
"1530208832465";"-3.0"
"1530208832486";"-4.0"
"1530208832507";"-5.0"
"1530208832528";"-6.0"
"1530208832531";"-7.0"
"1530208832553";"-8.0"
"1530208832638";"-7.0"
"1530208832660";"-6.0"
"1530208832660";"-5.0"
"1530208832661";"-4.0"
"1530208832661";"-3.0"
"1530208832661";"-2.0"
"1530208832684";"-1.0"
"1530208832684";"0.0"
"1530208832766";"1.0"
"1530208832766";"2.0"
"1530208832787";"3.0"
"1530208832787";"5.0"
"1530208832787";"6.0"
"1530208832788";"7.0"
"1530208832788";"9.0"
"1530208832788";"10.0"
"1530208832788";"11.0"
"1530208832788";"12.0"
"1530208832788";"13.0"
"1530208832788";"14.0"
"1530208832812";"13.0"
"1530208832812";"11.0"
"1530208832812";"10.0"
"1530208832812";"8.0"
"1530208832812";"7.0"
"1530208832833";"5.0"
"1530208832833";"4.0"
"1530208832833";"2.0"
"1530208832833";"1.0"
"1530208832833";"0.0"
"1530208832833";"-1.0"
"1530208832834";"-2.0"
"1530208832854";"-4.0"
"1530208832854";"-5.0"
"1530208832855";"-7.0"
"1530208832855";"-8.0"
"1530208832855";"-9.0"
"1530208832855";"-11.0"
"1530208832855";"-12.0"
"1530208832856";"-13.0"
"1530208832878";"-15.0"
"1530208832878";"-16.0"
"1530208832878";"-17.0"
"1530208832878";"-18.0"
"1530208832878";"-19.0"
"1530208832878";"-20.0"
"1530208832879";"-21.0"
"1530208832899";"-22.0"
"1530208832900";"-23.0"
"1530208832900";"-24.0"
"1530208832900";"-25.0"
"1530208832921";"-26.0"
"1530208832922";"-27.0"
"1530208832922";"-28.0"
"1530208832922";"-29.0"
"1530208832944";"-30.0"
"1530208832945";"-31.0"
"1530208832966";"-32.0"
"1530208833010";"-31.0"
"1530208833031";"-30.0"
"1530208833032";"-29.0"
"1530208833032";"-28.0"
"1530208833032";"-27.0"
"1530208833053";"-26.0"
"1530208833053";"-25.0"
"1530208833053";"-24.0"
"1530208833053";"-23.0"
"1530208833076";"-22.0"
"1530208833076";"-21.0"
"1530208833076";"-20.0"
"1530208833097";"-19.0"
"1530208833098";"-18.0"
"1530208833098";"-17.0"
"1530208833119";"-16.0"
"1530208833119";"-15.0"
"1530208833120";"-14.0"
"1530208833120";"-13.0"
"1530208833141";"-12.0"
"1530208833162";"-11.0"
"1530208833163";"-10.0"
"1530208833163";"-9.0"
"1530208833163";"-8.0"
"1530208833187";"-7.0"
"1530208833187";"-6.0"
"1530208833187";"-5.0"
"1530208833208";"-4.0"
"1530208833210";"-3.0"
"1530208833210";"-2.0"
"1530208833211";"-1.0"
"1530208833231";"0.0"
"1530208833232";"1.0"
"1530208833232";"2.0"
"1530208833232";"3.0"
"1530208833232";"4.0"
"1530208833232";"5.0"
"1530208833253";"6.0"
"1530208833253";"7.0"
"1530208833253";"8.0"
"1530208833253";"9.0"
"1530208833253";"10.0"
"1530208833254";"11.0"
"1530208833274";"12.0"
"1530208833275";"13.0"
"1530208833275";"14.0"
"1530208833275";"15.0"
"1530208833275";"16.0"
"1530208833275";"17.0"
"1530208833296";"18.0"
"1530208833404";"19.0"
"1530208833405";"18.0"
"1530208833426";"17.0"
"1530208833426";"16.0"
"1530208833426";"15.0"
"1530208833447";"14.0"
"1530208833447";"13.0"
"1530208833448";"12.0"
"1530208833448";"11.0"
"1530208833469";"10.0"
"1530208833490";"9.0"
"1530208833490";"8.0"
"1530208833491";"7.0"
"1530208833491";"6.0"
"1530208833512";"5.0"
"1530208833532";"4.0"
"1530208833533";"3.0"
"1530208833554";"2.0"
"1530208833576";"1.0"
"1530208833597";"0.0"
"1530208833960";"1.0"
"1530208833980";"2.0"
"1530208834045";"3.0"
"1530208834109";"4.0"
"1530208834152";"5.0"
"1530208834173";"4.0"
"1530208834216";"3.0"
"1530208834237";"2.0"
"1530208834279";"3.0"
"1530208834280";"4.0"
"1530208834300";"5.0"
"1530208834301";"6.0"
"1530208834301";"7.0"
"1530208834322";"8.0"
"1530208834322";"9.0"
"1530208834322";"10.0"
"1530208834323";"11.0"
"1530208834346";"12.0"
"1530208834347";"13.0"
"1530208834368";"14.0"
"1530208834390";"13.0"
"1530208834420";"12.0"
"1530208834420";"11.0"
"1530208834421";"10.0"
"1530208834441";"9.0"
"1530208834462";"8.0"
"1530208834462";"7.0"
"1530208834463";"6.0"
"1530208834463";"5.0"
"1530208834483";"4.0"
"1530208834484";"3.0"
"1530208834505";"2.0"
"1530208834526";"1.0"
"1530208834526";"0.0"
"1530208834527";"-1.0"
"1530208834548";"-2.0"
"1530208834569";"-3.0"
"1530208834590";"-4.0"
"1530208834654";"-3.0"
"1530208834655";"-2.0"
"1530208834676";"-1.0"
"1530208834743";"0.0"
"1530208834793";"1.0"
"1530208834794";"2.0"
"1530208834815";"3.0"
"1530208834816";"4.0"
"1530208834838";"3.0"
"1530208834882";"2.0"
"1530208834903";"1.0"
"1530208834924";"0.0"
"1530208835010";"1.0"
"1530208835012";"2.0"
"1530208835012";"3.0"
"1530208835033";"4.0"
"1530208835033";"5.0"
"1530208835034";"6.0"
"1530208835034";"7.0"
"1530208835055";"6.0"
"1530208835055";"5.0"
"1530208835076";"4.0"
"1530208835076";"3.0"
"1530208835076";"2.0"
"1530208835097";"1.0"
"1530208835097";"0.0"
"1530208835098";"-1.0"
"1530208835098";"-2.0"
"1530208835118";"-3.0"
"1530208835119";"-4.0"
"1530208835119";"-5.0"
"1530208835140";"-6.0"
"1530208835143";"-7.0"
"1530208835164";"-8.0"
"1530208835185";"-9.0"
"1530208835208";"-8.0"
"1530208835229";"-7.0"
"1530208835250";"-6.0"
"1530208835250";"-5.0"
"1530208835271";"-4.0"
"1530208835272";"-3.0"
"1530208835275";"-2.0"
"1530208835276";"-1.0"
"1530208835296";"0.0"
"1530208835317";"1.0"
"1530208835318";"2.0"
"1530208835338";"3.0"
"1530208835340";"4.0"
"1530208835362";"5.0"
"1530208835387";"6.0"
"1530208835388";"7.0"
"1530208835410";"8.0"
"1530208835410";"9.0"
"1530208835413";"10.0"
"1530208835414";"11.0"
"1530208835414";"12.0"
"1530208835441";"13.0"
"1530208835441";"14.0"
"1530208835462";"15.0"
"1530208835462";"16.0"
"1530208835485";"15.0"
"1530208835507";"14.0"
"1530208835528";"13.0"
"1530208835529";"12.0"
"1530208835551";"11.0"
"1530208835551";"10.0"
"1530208835551";"9.0"
"1530208835552";"8.0"
"1530208835572";"7.0"
"1530208835573";"6.0"
"1530208835594";"5.0"
"1530208835615";"4.0"
"1530208835617";"3.0"
"1530208835618";"2.0"
"1530208835618";"1.0"
"1530208835639";"0.0"
"1530208835660";"-1.0"
"1530208835683";"-2.0"
"1530208835753";"-3.0"
"1530208835784";"-4.0"
"1530208835810";"-5.0"
"1530208835856";"-6.0"
"1530208835920";"-7.0"
"1530208835985";"-6.0"
"1530208836006";"-7.0"
"1530208836050";"-6.0"
"1530208836178";"-7.0"
"1530208836223";"-8.0"
"1530208836373";"-7.0"
"1530208836396";"-6.0"
"1530208836417";"-5.0"
"1530208836438";"-4.0"
"1530208836459";"-3.0"
"1530208836507";"-2.0"
"1530208836507";"-1.0"
"1530208836528";"0.0"
"1530208836529";"1.0"
"1530208836550";"2.0"
"1530208836551";"3.0"
"1530208836552";"4.0"
"1530208836552";"5.0"
"1530208836552";"6.0"
"1530208836552";"7.0"
"1530208836573";"8.0"
"1530208836573";"9.0"
"1530208836574";"10.0"
"1530208836595";"11.0"
"1530208836595";"12.0"
"1530208836596";"13.0"
"1530208836662";"12.0"
"1530208836663";"11.0"
"1530208836684";"10.0"
"1530208836776";"9.0"
"1530208836798";"8.0"
"1530208836798";"7.0"
"1530208836799";"6.0"
"1530208836799";"5.0"
"1530208836800";"4.0"
"1530208836800";"3.0"
"1530208836800";"2.0"
"1530208836800";"1.0"
"1530208836802";"0.0"
"1530208836844";"-1.0"
"1530208836865";"-2.0"
"1530208836887";"-3.0"
"1530208836929";"-2.0"
"1530208837056";"-3.0"
"1530208837079";"-4.0"
"1530208837100";"-5.0"
"1530208837163";"-6.0"
"1530208837163";"-5.0"
"1530208837205";"-4.0"
"1530208837226";"-3.0"
"1530208837247";"-2.0"
"1530208837248";"-1.0"
"1530208837272";"0.0"
"1530208837423";"-1.0"
"1530208837444";"0.0"
"1530208837465";"1.0"
"1530208837488";"2.0"
"1530208837488";"3.0"
"1530208837488";"4.0"
"1530208837509";"5.0"
"1530208837510";"6.0"
"1530208837531";"7.0"
"1530208837575";"6.0"
"1530208837596";"5.0"
"1530208837620";"4.0"
"1530208837641";"3.0"
"1530208837642";"2.0"
"1530208837663";"1.0"
"1530208837664";"0.0"
"1530208837716";"-1.0"
"1530208837737";"-2.0"
"1530208837758";"-3.0"
"1530208837760";"-4.0"
"1530208837843";"-3.0"
"1530208837955";"-2.0"
"1530208837955";"-3.0"
"1530208838018";"-2.0"
"1530208838040";"-3.0"
"1530208838171";"-2.0"
"1530208838213";"-1.0"
"1530208838298";"-2.0"
"1530208838362";"-1.0"
"1530208838362";"0.0"
"1530208838384";"1.0"
"1530208838384";"2.0"
"1530208838405";"3.0"
"1530208838406";"4.0"
"1530208838408";"5.0"
"1530208838408";"6.0"
"1530208838408";"7.0"
"1530208838429";"8.0"
"1530208838429";"9.0"
"1530208838429";"10.0"
"1530208838430";"11.0"
"1530208838450";"12.0"
"1530208838450";"13.0"
"1530208838514";"14.0"
"1530208838580";"13.0"
"1530208838581";"12.0"
"1530208838581";"11.0"
"1530208838601";"10.0"
"1530208838602";"9.0"
"1530208838603";"8.0"
"1530208838624";"7.0"
"1530208838625";"6.0"
"1530208838625";"5.0"
"1530208838646";"4.0"
"1530208838646";"3.0"
"1530208838667";"2.0"
"1530208838667";"1.0"
"1530208838691";"0.0"
"1530208838712";"-1.0"
"1530208838809";"-2.0"
"1530208838852";"-3.0"
"1530208839231";"-2.0"
"1530208839231";"-3.0"
"1530208839331";"-2.0"
"1530208839352";"-1.0"
"1530208839352";"0.0"
"1530208839353";"1.0"
"1530208839353";"2.0"
"1530208839353";"3.0"
"1530208839353";"4.0"
"1530208839353";"5.0"
"1530208839354";"6.0"
"1530208839375";"7.0"
"1530208839375";"8.0"
"1530208839375";"9.0"
"1530208839376";"10.0"
"1530208839376";"11.0"
"1530208839396";"12.0"
"1530208839462";"13.0"
"1530208839484";"12.0"
"1530208839505";"11.0"
"1530208839505";"10.0"
"1530208839526";"9.0"
"1530208839620";"8.0"
"1530208839621";"7.0"
"1530208839621";"6.0"
"1530208839621";"5.0"
"1530208839621";"4.0"
"1530208839621";"3.0"
"1530208839621";"2.0"
"1530208839622";"1.0"
"1530208839625";"0.0"
"1530208839625";"-1.0"
"1530208839646";"-2.0"
"1530208839647";"-3.0"
"1530208839788";"-4.0"
"1530208839876";"-5.0"
"1530208840012";"-4.0"
"1530208840014";"-3.0"
"1530208840017";"-2.0"
"1530208840082";"-1.0"
"1530208840145";"-2.0"
"1530208840232";"-1.0"
"1530208840232";"0.0"
"1530208840253";"1.0"
"1530208840254";"2.0"
"1530208840274";"3.0"
"1530208840275";"4.0"
"1530208840275";"5.0"
"1530208840296";"6.0"
"1530208840296";"7.0"
"1530208840296";"8.0"
"1530208840317";"9.0"
"1530208840318";"10.0"
"1530208840318";"11.0"
"1530208840318";"12.0"
"1530208840341";"13.0"
"1530208840383";"12.0"
"1530208840404";"11.0"
"1530208840405";"10.0"
"1530208840426";"9.0"
"1530208840426";"8.0"
"1530208840447";"7.0"
"1530208840447";"6.0"
"1530208840468";"5.0"
"1530208840468";"4.0"
"1530208840492";"3.0"
"1530208840492";"2.0"
"1530208840492";"1.0"
"1530208840513";"0.0"
"1530208840534";"-1.0"
"1530208840555";"-2.0"
"1530208840706";"-3.0"
"1530208840727";"-4.0"
"1530208840771";"-5.0"
"1530208840816";"-6.0"
"1530208840837";"-5.0"
"1530208840900";"-4.0"
"1530208840944";"-3.0"
"1530208841053";"-2.0"
"1530208841074";"-1.0"
"1530208841077";"0.0"
"1530208841098";"1.0"
"1530208841119";"2.0"
"1530208841119";"3.0"
"1530208841119";"4.0"
"1530208841119";"5.0"
"1530208841120";"6.0"
"1530208841141";"7.0"
"1530208841141";"8.0"
"1530208841143";"9.0"
"1530208841143";"10.0"
"1530208841164";"11.0"
"1530208841164";"12.0"
"1530208841164";"13.0"
"1530208841251";"12.0"
"1530208841272";"11.0"
"1530208841293";"10.0"
"1530208841293";"9.0"
"1530208841293";"8.0"
"1530208841314";"7.0"
"1530208841314";"6.0"
"1530208841335";"5.0"
"1530208841337";"4.0"
"1530208841358";"3.0"
"1530208841359";"2.0"
"1530208841380";"1.0"
"1530208841380";"0.0"
"1530208841401";"-1.0"
"1530208841443";"-2.0"
"1530208841464";"-3.0"
"1530208841527";"-4.0"
"1530208841635";"-5.0"
"1530208841698";"-4.0"
"1530208841719";"-5.0"
"1530208841742";"-4.0"
"1530208842021";"-3.0"
"1530208842042";"-2.0"
"1530208842042";"-1.0"
"1530208842063";"0.0"
"1530208842063";"1.0"
"1530208842087";"2.0"
"1530208842087";"3.0"
"1530208842087";"4.0"
"1530208842108";"5.0"
"1530208842109";"6.0"
"1530208842109";"7.0"
"1530208842109";"8.0"
"1530208842110";"9.0"
"1530208842110";"10.0"
"1530208842131";"11.0"
"1530208842132";"12.0"
"1530208842132";"13.0"
"1530208842257";"12.0"
"1530208842278";"11.0"
"1530208842281";"10.0"
"1530208842302";"9.0"
"1530208842302";"8.0"
"1530208842302";"7.0"
"1530208842323";"6.0"
"1530208842323";"5.0"
"1530208842323";"4.0"
"1530208842323";"3.0"
"1530208842346";"2.0"
"1530208842347";"1.0"
"1530208842391";"0.0"
"1530208842435";"-1.0"
"1530208842435";"-2.0"
"1530208842456";"-3.0"
"1530208842478";"-4.0"
"1530208842564";"-3.0"
"1530208842627";"-2.0"
"1530208842627";"-3.0"
"1530208842669";"-2.0"
"1530208842775";"-1.0"
"1530208842818";"0.0"
"1530208842945";"-1.0"
"1530208843049";"0.0"
"1530208843070";"1.0"
"1530208843072";"2.0"
"1530208843093";"3.0"
"1530208843093";"4.0"
"1530208843093";"5.0"
"1530208843093";"6.0"
"1530208843093";"7.0"
"1530208843114";"8.0"
"1530208843114";"9.0"
"1530208843114";"10.0"
"1530208843136";"11.0"
"1530208843136";"12.0"
"1530208843181";"13.0"
"1530208843225";"12.0"
"1530208843246";"11.0"
"1530208843246";"10.0"
"1530208843267";"9.0"
"1530208843267";"8.0"
"1530208843288";"7.0"
"1530208843289";"6.0"
"1530208843289";"5.0"
"1530208843310";"4.0"
"1530208843310";"3.0"
"1530208843331";"2.0"
"1530208843331";"1.0"
"1530208843352";"0.0"
"1530208843444";"-1.0"
"1530208843466";"-2.0"
"1530208843488";"-1.0"
"1530208843489";"-2.0"
"1530208843572";"-3.0"
"1530208843700";"-2.0"
"1530208843721";"-3.0"
"1530208843743";"-2.0"
"1530208843787";"-1.0"
"1530208843830";"0.0"
"1530208843894";"1.0"
"1530208843915";"0.0"
"1530208843959";"-1.0"
"1530208844001";"-2.0"
"1530208844088";"-3.0"
"1530208844131";"-2.0"
"1530208844155";"-1.0"
"1530208844156";"0.0"
"1530208844177";"1.0"
"1530208844177";"2.0"
"1530208844198";"3.0"
"1530208844198";"4.0"
"1530208844198";"5.0"
"1530208844199";"6.0"
"1530208844219";"7.0"
"1530208844222";"8.0"
"1530208844222";"9.0"
"1530208844222";"10.0"
"1530208844243";"11.0"
"1530208844244";"12.0"
"1530208844401";"11.0"
"1530208844422";"10.0"
"1530208844422";"9.0"
"1530208844422";"8.0"
"1530208844443";"7.0"
"1530208844445";"6.0"
"1530208844445";"5.0"
"1530208844445";"4.0"
"1530208844445";"3.0"
"1530208844465";"2.0"
"1530208844466";"1.0"
"1530208844466";"0.0"
"1530208844488";"-1.0"
"1530208844509";"-2.0"
"1530208844530";"-3.0"
"1530208844659";"-2.0"
"1530208844688";"-1.0"
"1530208844709";"0.0"
"1530208844739";"1.0"
"1530208844804";"0.0"
"1530208844847";"-1.0"
"1530208844889";"-2.0"
"1530208844979";"-3.0"
"1530208845045";"-2.0"
"1530208845045";"-1.0"
"1530208845089";"-2.0"
"1530208845109";"-3.0"
"1530208845110";"-4.0"
"1530208845131";"-5.0"
"1530208845131";"-6.0"
"1530208845131";"-7.0"
"1530208845131";"-8.0"
"1530208845133";"-9.0"
"1530208845155";"-10.0"
"1530208845155";"-11.0"
"1530208845176";"-12.0"
"1530208845176";"-13.0"
"1530208845177";"-14.0"
"1530208845197";"-15.0"
"1530208845197";"-16.0"
"1530208845198";"-17.0"
"1530208845241";"-16.0"
"1530208845242";"-15.0"
"1530208845242";"-14.0"
"1530208845263";"-13.0"
"1530208845263";"-12.0"
"1530208845263";"-11.0"
"1530208845263";"-10.0"
"1530208845284";"-9.0"
"1530208845286";"-8.0"
"1530208845286";"-7.0"
"1530208845286";"-6.0"
"1530208845286";"-5.0"
"1530208845307";"-4.0"
"1530208845308";"-3.0"
"1530208845308";"-2.0"
"1530208845308";"-1.0"
"1530208845308";"0.0"
"1530208845349";"1.0"
"1530208845351";"2.0"
"1530208845372";"3.0"
"1530208845425";"4.0"
"1530208845426";"3.0"
"1530208845429";"2.0"
"1530208845475";"1.0"
"1530208845475";"0.0"
"1530208845476";"-1.0"
"1530208845500";"-2.0"
"1530208845500";"-3.0"
"1530208845544";"-4.0"
"1530208845629";"-3.0"
"1530208845715";"-2.0"
"1530208845716";"-1.0"
"1530208845738";"0.0"
"1530208845780";"1.0"
"1530208845802";"2.0"
"1530208845871";"1.0"
"1530208845893";"0.0"
"1530208846001";"-1.0"
"1530208846024";"0.0"
"1530208846088";"-1.0"
"1530208846110";"-2.0"
"1530208846111";"-3.0"
"1530208846111";"-4.0"
"1530208846132";"-5.0"
"1530208846133";"-6.0"
"1530208846134";"-7.0"
"1530208846176";"-6.0"
"1530208846176";"-5.0"
"1530208846197";"-4.0"
"1530208846197";"-3.0"
"1530208846197";"-2.0"
"1530208846219";"-1.0"
"1530208846220";"0.0"
"1530208846241";"1.0"
"1530208846241";"2.0"
"1530208846262";"3.0"
"1530208846263";"4.0"
"1530208846263";"5.0"
"1530208846285";"6.0"
"1530208846285";"7.0"
"1530208846306";"8.0"
"1530208846349";"7.0"
"1530208846370";"6.0"
"1530208846371";"5.0"
"1530208846371";"4.0"
"1530208846411";"3.0"
"1530208846432";"2.0"
"1530208846455";"1.0"
"1530208846455";"0.0"
"1530208846476";"-1.0"
"1530208846498";"-2.0"
"1530208846499";"-3.0"
"1530208846540";"-4.0"
"1530208846604";"-5.0"
"1530208846669";"-6.0"
"1530208846712";"-5.0"
"1530208846777";"-4.0"
"1530208846821";"-3.0"
"1530208846907";"-2.0"
"1530208847055";"-1.0"
"1530208847055";"0.0"
"1530208847078";"1.0"
"1530208847099";"2.0"
"1530208847099";"3.0"
"1530208847100";"4.0"
"1530208847100";"5.0"
"1530208847121";"6.0"
"1530208847121";"7.0"
"1530208847121";"8.0"
"1530208847122";"9.0"
"1530208847143";"10.0"
"1530208847146";"11.0"
"1530208847208";"10.0"
"1530208847231";"9.0"
"1530208847232";"8.0"
"1530208847253";"7.0"
"1530208847253";"6.0"
"1530208847274";"5.0"
"1530208847274";"4.0"
"1530208847275";"3.0"
"1530208847296";"2.0"
"1530208847296";"1.0"
"1530208847317";"0.0"
"1530208847318";"-1.0"
"1530208847338";"-2.0"
"1530208847361";"-3.0"
"1530208847407";"-2.0"
"1530208847486";"-3.0"
"1530208847528";"-4.0"
"1530208847570";"-3.0"
"1530208847614";"-2.0"
"1530208847807";"-1.0"
"1530208847892";"0.0"
"1530208847933";"1.0"
"1530208847934";"2.0"
"1530208847934";"3.0"
"1530208847957";"4.0"
"1530208847957";"5.0"
"1530208847957";"6.0"
"1530208847958";"7.0"
"1530208847980";"8.0"
"1530208847980";"9.0"
"1530208847980";"10.0"
"1530208848023";"11.0"
"1530208848129";"10.0"
"1530208848130";"9.0"
"1530208848152";"8.0"
"1530208848152";"7.0"
"1530208848173";"6.0"
"1530208848194";"5.0"
"1530208848194";"4.0"
"1530208848215";"3.0"
"1530208848216";"2.0"
"1530208848237";"1.0"
"1530208848258";"0.0"
"1530208848301";"-1.0"
"1530208848322";"-2.0"
"1530208848343";"-3.0"
"1530208848458";"-2.0"
"1530208848480";"-1.0"
"1530208848480";"0.0"
"1530208848481";"1.0"
"1530208848503";"0.0"
"1530208848524";"-1.0"
"1530208848545";"-2.0"
"1530208848547";"-3.0"
"1530208848588";"-2.0"
"1530208848589";"-1.0"
"1530208848609";"0.0"
"1530208848610";"1.0"
"1530208848611";"2.0"
"1530208848611";"3.0"
"1530208848631";"4.0"
"1530208848632";"5.0"
"1530208848632";"6.0"
"1530208848653";"7.0"
"1530208848674";"6.0"
"1530208848698";"5.0"
"1530208848699";"4.0"
"1530208848700";"3.0"
"1530208848700";"2.0"
"1530208848700";"1.0"
"1530208848700";"0.0"
"1530208848700";"-1.0"
"1530208848700";"-2.0"
"1530208848700";"-3.0"
"1530208848721";"-5.0"
"1530208848722";"-6.0"
"1530208848722";"-7.0"
"1530208848722";"-8.0"
"1530208848722";"-9.0"
"1530208848722";"-11.0"
"1530208848742";"-12.0"
"1530208848743";"-13.0"
"1530208848743";"-14.0"
"1530208848743";"-15.0"
"1530208848744";"-16.0"
"1530208848744";"-17.0"
"1530208848765";"-18.0"
"1530208848766";"-19.0"
"1530208848766";"-20.0"
"1530208848766";"-21.0"
"1530208848766";"-22.0"
"1530208848787";"-23.0"
"1530208848831";"-22.0"
"1530208848832";"-21.0"
"1530208848832";"-20.0"
"1530208848853";"-19.0"
"1530208848853";"-18.0"
"1530208848853";"-17.0"
"1530208848853";"-16.0"
"1530208848854";"-15.0"
"1530208848854";"-14.0"
"1530208848874";"-13.0"
"1530208848875";"-12.0"
"1530208848875";"-11.0"
"1530208848875";"-10.0"
"1530208848876";"-9.0"
"1530208848897";"-8.0"
"1530208848898";"-7.0"
"1530208848898";"-5.0"
"1530208848898";"-4.0"
"1530208848898";"-3.0"
"1530208848898";"-2.0"
"1530208848898";"-1.0"
"1530208848898";"0.0"
"1530208848898";"1.0"
"1530208848920";"2.0"
"1530208848920";"3.0"
"1530208848920";"4.0"
"1530208848920";"5.0"
"1530208848921";"6.0"
"1530208848941";"7.0"
"1530208848942";"8.0"
"1530208848942";"9.0"
"1530208848943";"10.0"
"1530208848943";"11.0"
"1530208848943";"12.0"
"1530208849028";"13.0"
"1530208849092";"12.0"
"1530208849092";"11.0"
"1530208849113";"10.0"
"1530208849113";"9.0"
"1530208849113";"8.0"
"1530208849134";"7.0"
"1530208849135";"6.0"
"1530208849135";"5.0"
"1530208849135";"4.0"
"1530208849159";"3.0"
"1530208849160";"2.0"
"1530208849160";"1.0"
"1530208849160";"0.0"
"1530208849182";"-1.0"
"1530208849182";"-2.0"
"1530208849182";"-3.0"
"1530208849182";"-4.0"
"1530208849203";"-5.0"
"1530208849203";"-6.0"
"1530208849203";"-7.0"
"1530208849203";"-8.0"
"1530208849225";"-9.0"
"1530208849226";"-10.0"
"1530208849246";"-11.0"
"1530208849267";"-10.0"
"1530208849289";"-9.0"
"1530208849310";"-8.0"
"1530208849311";"-7.0"
"1530208849311";"-6.0"
"1530208849311";"-5.0"
"1530208849332";"-4.0"
"1530208849354";"-3.0"
"1530208849375";"-2.0"
"1530208849375";"-1.0"
"1530208849396";"0.0"
"1530208849462";"1.0"
"1530208849485";"0.0"
"1530208849590";"-1.0"
"1530208849611";"0.0"
"1530208849703";"1.0"
"1530208849787";"2.0"
"1530208849808";"3.0"
"1530208849812";"4.0"
"1530208849833";"5.0"
"1530208849833";"6.0"
"1530208849833";"7.0"
"1530208849875";"8.0"
"1530208849875";"9.0"
"1530208849875";"10.0"
"1530208849878";"11.0"
"1530208849898";"12.0"
"1530208849962";"11.0"
"1530208849983";"10.0"
"1530208849983";"9.0"
"1530208850004";"8.0"
"1530208850025";"7.0"
"1530208850025";"6.0"
"1530208850046";"5.0"
"1530208850067";"4.0"
"1530208850067";"3.0"
"1530208850088";"2.0"
"1530208850090";"1.0"
"1530208850111";"0.0"
"1530208850111";"-1.0"
"1530208850132";"-2.0"
"1530208850133";"-3.0"
"1530208850156";"-4.0"
"1530208850176";"-5.0"
"1530208850177";"-6.0"
"1530208850198";"-7.0"
"1530208850220";"-8.0"
"1530208850241";"-9.0"
"1530208850262";"-10.0"
"1530208850283";"-11.0"
"1530208850285";"-12.0"
"1530208850306";"-13.0"
"1530208850327";"-14.0"
"1530208850370";"-13.0"
"1530208850415";"-12.0"
"1530208850416";"-11.0"
"1530208850420";"-10.0"
"1530208850463";"-9.0"
"1530208850463";"-8.0"
"1530208850486";"-7.0"
"1530208850507";"-6.0"
"1530208850615";"-7.0"
"1530208850636";"-6.0"
"1530208850808";"-5.0"
"1530208850809";"-4.0"
"1530208850812";"-3.0"
"1530208850833";"-2.0"
"1530208850834";"-1.0"
"1530208850834";"0.0"
"1530208850855";"1.0"
"1530208850855";"2.0"
"1530208850876";"3.0"
"1530208850877";"4.0"
"1530208850878";"5.0"
"1530208850899";"6.0"
"1530208850899";"7.0"
"1530208850920";"8.0"
"1530208850921";"9.0"
"1530208850964";"8.0"
"1530208851005";"7.0"
"1530208851006";"6.0"
"1530208851029";"5.0"
"1530208851029";"4.0"
"1530208851050";"3.0"
"1530208851050";"2.0"
"1530208851071";"1.0"
"1530208851094";"0.0"
"1530208851161";"-1.0"
"1530208851202";"0.0"
"1530208851265";"-1.0"
"1530208851310";"-2.0"
"1530208851467";"-3.0"
"1530208851468";"-2.0"
"1530208851512";"-1.0"
"1530208851576";"0.0"
"1530208851597";"-1.0"
"1530208851622";"0.0"
"1530208851643";"-1.0"
"1530208851665";"0.0"
"1530208851687";"1.0"
"1530208851708";"2.0"
"1530208851708";"3.0"
"1530208851708";"4.0"
"1530208851730";"5.0"
"1530208851730";"6.0"
"1530208851730";"7.0"
"1530208851751";"8.0"
"1530208851752";"9.0"
"1530208851752";"10.0"
"1530208851773";"11.0"
"1530208851773";"12.0"
"1530208851794";"13.0"
"1530208851859";"12.0"
"1530208851881";"11.0"
"1530208851884";"10.0"
"1530208851905";"9.0"
"1530208851906";"8.0"
"1530208851906";"7.0"
"1530208851906";"6.0"
"1530208851927";"5.0"
"1530208851927";"4.0"
"1530208851927";"3.0"
"1530208851948";"2.0"
"1530208851950";"1.0"
"1530208851950";"0.0"
"1530208851971";"-1.0"
"1530208851997";"-2.0"
"1530208852020";"-1.0"
"1530208852041";"0.0"
"1530208852062";"1.0"
"1530208852106";"0.0"
"1530208852148";"-1.0"
"1530208852151";"-2.0"
"1530208852215";"-1.0"
"1530208852240";"0.0"
"1530208852304";"1.0"
"1530208852392";"0.0"
"1530208852437";"1.0"
"1530208852462";"2.0"
"1530208852483";"3.0"
"1530208852508";"2.0"
"1530208852529";"1.0"
"1530208852530";"0.0"
"1530208852572";"-1.0"
"1530208852572";"-2.0"
"1530208852593";"-3.0"
"1530208852593";"-4.0"
"1530208852614";"-5.0"
"1530208852636";"-6.0"
"1530208852698";"-5.0"
"1530208852699";"-4.0"
"1530208852699";"-3.0"
"1530208852720";"-2.0"
"1530208852720";"-1.0"
"1530208852720";"0.0"
"1530208852721";"1.0"
"1530208852721";"2.0"
"1530208852741";"3.0"
"1530208852741";"4.0"
"1530208852741";"5.0"
"1530208852743";"6.0"
"1530208852744";"7.0"
"1530208852764";"8.0"
"1530208852765";"9.0"
"1530208852765";"10.0"
"1530208852790";"11.0"
"1530208852790";"12.0"
"1530208852876";"11.0"
"1530208852876";"10.0"
"1530208852876";"9.0"
"1530208852877";"8.0"
"1530208852877";"7.0"
"1530208852898";"6.0"
"1530208852898";"5.0"
"1530208852898";"4.0"
"1530208852898";"3.0"
"1530208852919";"2.0"
"1530208852919";"1.0"
"1530208852919";"0.0"
"1530208852940";"-1.0"
"1530208852940";"-2.0"
"1530208852944";"-3.0"
"1530208852966";"-4.0"
"1530208852966";"-5.0"
"1530208852966";"-6.0"
"1530208852966";"-7.0"
"1530208852987";"-8.0"
"1530208852987";"-9.0"
"1530208853029";"-10.0"
"1530208853093";"-9.0"
"1530208853093";"-8.0"
"1530208853114";"-7.0"
"1530208853114";"-6.0"
"1530208853135";"-5.0"
"1530208853156";"-4.0"
"1530208853158";"-3.0"
"1530208853179";"-2.0"
"1530208853180";"-1.0"
"1530208853200";"0.0"
"1530208853224";"1.0"
"1530208853245";"2.0"
"1530208853246";"3.0"
"1530208853288";"4.0"
"1530208853330";"3.0"
"1530208853459";"2.0"
"1530208853502";"3.0"
"1530208853548";"2.0"
"1530208853591";"1.0"
"1530208853592";"0.0"
"1530208853640";"-1.0"
"1530208853640";"-2.0"
"1530208853661";"-3.0"
"1530208853661";"-4.0"
"1530208853705";"-3.0"
"1530208853705";"-2.0"
"1530208853726";"-1.0"
"1530208853726";"0.0"
"1530208853747";"1.0"
"1530208853748";"2.0"
"1530208853772";"3.0"
"1530208853772";"4.0"
"1530208853773";"5.0"
"1530208853773";"6.0"
"1530208853773";"7.0"
"1530208853773";"8.0"
"1530208853794";"9.0"
"1530208853794";"10.0"
"1530208853815";"11.0"
"1530208853839";"12.0"
"1530208853861";"11.0"
"1530208853882";"10.0"
"1530208853903";"9.0"
"1530208853924";"8.0"
"1530208853925";"7.0"
"1530208853925";"6.0"
"1530208853945";"5.0"
"1530208853947";"4.0"
"1530208853968";"3.0"
"1530208853968";"2.0"
"1530208853989";"1.0"
"1530208853989";"0.0"
"1530208854220";"-1.0"
"1530208854263";"-2.0"
"1530208854395";"-3.0"
"1530208854416";"-2.0"
"1530208854481";"-1.0"
"1530208854524";"-2.0"
"1530208854609";"-3.0"
"1530208854609";"-2.0"
"1530208854612";"-3.0"
"1530208854697";"-2.0"
"1530208854719";"-1.0"
"1530208854719";"0.0"
"1530208854740";"1.0"
"1530208854740";"2.0"
"1530208854740";"3.0"
"1530208854762";"4.0"
"1530208854763";"5.0"
"1530208854763";"6.0"
"1530208854763";"7.0"
"1530208854763";"8.0"
"1530208854763";"9.0"
"1530208854764";"10.0"
"1530208854764";"11.0"
"1530208854849";"12.0"
"1530208854914";"11.0"
"1530208854914";"10.0"
"1530208854935";"9.0"
"1530208854958";"8.0"
"1530208854979";"7.0"
"1530208855084";"8.0"
"1530208855086";"9.0"
"1530208855108";"10.0"
"1530208855129";"9.0"
"1530208855172";"8.0"
"1530208855173";"7.0"
"1530208855193";"6.0"
"1530208855194";"5.0"
"1530208855214";"4.0"
"1530208855236";"3.0"
"1530208855280";"4.0"
"1530208855302";"5.0"
"1530208855323";"6.0"
"1530208855366";"7.0"
"1530208855431";"8.0"
"1530208855453";"9.0"
"1530208855474";"10.0"
"1530208855474";"11.0"
"1530208855477";"12.0"
"1530208855498";"13.0"
"1530208855541";"12.0"
"1530208855562";"11.0"
"1530208855583";"10.0"
"1530208855604";"9.0"
"1530208855605";"8.0"
"1530208855626";"7.0"
"1530208855647";"6.0"
"1530208855689";"7.0"
"1530208855710";"8.0"
"1530208855711";"9.0"
"1530208855731";"10.0"
"1530208855752";"11.0"
"1530208855752";"12.0"
"1530208855815";"11.0"
"1530208855818";"10.0"
"1530208855840";"9.0"
"1530208855840";"8.0"
"1530208855869";"7.0"
"1530208855870";"6.0"
"1530208855891";"5.0"
"1530208855912";"4.0"
"1530208855933";"3.0"
"1530208855955";"2.0"
"1530208855976";"1.0"
"1530208855977";"0.0"
"1530208856062";"-1.0"
"1530208856147";"0.0"
"1530208856232";"-1.0"
"1530208856319";"-2.0"
"1530208856342";"-3.0"
"1530208856392";"-4.0"
"1530208856414";"-3.0"
"1530208856436";"-4.0"
"1530208856501";"-5.0"
"1530208856522";"-6.0"
"1530208856522";"-7.0"
"1530208856543";"-8.0"
"1530208856568";"-9.0"
"1530208856568";"-10.0"
"1530208856589";"-11.0"
"1530208856590";"-12.0"
"1530208856633";"-11.0"
"1530208856654";"-10.0"
"1530208856675";"-9.0"
"1530208856699";"-8.0"
"1530208856721";"-7.0"
"1530208856764";"-8.0"
"1530208856764";"-9.0"
"1530208856784";"-10.0"
"1530208856805";"-11.0"
"1530208856806";"-12.0"
"1530208856806";"-13.0"
"1530208856826";"-14.0"
"1530208856828";"-15.0"
"1530208856828";"-16.0"
"1530208856828";"-17.0"
"1530208856849";"-18.0"
"1530208856849";"-19.0"
"1530208856850";"-20.0"
"1530208856871";"-21.0"
"1530208856871";"-22.0"
"1530208856871";"-23.0"
"1530208856895";"-24.0"
"1530208856895";"-25.0"
"1530208856916";"-26.0"
"1530208856916";"-27.0"
"1530208856916";"-28.0"
"1530208856916";"-29.0"
"1530208856917";"-30.0"
"1530208856937";"-31.0"
"1530208856937";"-32.0"
"1530208856938";"-33.0"
"1530208856938";"-34.0"
"1530208856938";"-35.0"
"1530208856961";"-36.0"
"1530208856961";"-37.0"
"1530208856961";"-38.0"
"1530208856982";"-39.0"
"1530208857046";"-38.0"
"1530208857067";"-37.0"
"1530208857067";"-36.0"
"1530208857088";"-35.0"
"1530208857088";"-34.0"
"1530208857090";"-33.0"
"1530208857090";"-32.0"
"1530208857111";"-31.0"
"1530208857111";"-30.0"
"1530208857111";"-29.0"
"1530208857111";"-28.0"
"1530208857111";"-27.0"
"1530208857132";"-26.0"
"1530208857132";"-25.0"
"1530208857133";"-24.0"
"1530208857155";"-23.0"
"1530208857155";"-22.0"
"1530208857176";"-21.0"
"1530208857176";"-20.0"
"1530208857197";"-19.0"
"1530208857218";"-18.0"
"1530208857220";"-17.0"
"1530208857241";"-16.0"
"1530208857241";"-15.0"
"1530208857242";"-14.0"
"1530208857262";"-13.0"
"1530208857263";"-12.0"
"1530208857263";"-11.0"
"1530208857284";"-10.0"
"1530208857284";"-9.0"
"1530208857284";"-8.0"
"1530208857285";"-7.0"
"1530208857307";"-6.0"
"1530208857307";"-5.0"
"1530208857307";"-4.0"
"1530208857307";"-3.0"
"1530208857307";"-2.0"
"1530208857308";"-1.0"
"1530208857308";"0.0"
"1530208857430";"-1.0"
"1530208857451";"0.0"
"1530208857453";"1.0"
"1530208857453";"2.0"
"1530208857474";"3.0"
"1530208857604";"2.0"
"1530208857625";"1.0"
"1530208857646";"0.0"
"1530208857691";"1.0"
"1530208857712";"2.0"
"1530208857734";"3.0"
"1530208857756";"4.0"
"1530208857797";"5.0"
"1530208857860";"6.0"
"1530208857881";"7.0"
"1530208857926";"6.0"
"1530208857948";"5.0"
"1530208857970";"4.0"
"1530208858014";"5.0"
"1530208858100";"4.0"
"1530208858123";"3.0"
"1530208858144";"2.0"
"1530208858228";"1.0"
"1530208858249";"2.0"
"1530208858271";"3.0"
"1530208858295";"4.0"
"1530208858295";"5.0"
"1530208858319";"6.0"
"1530208858320";"7.0"
"1530208858341";"8.0"
"1530208858384";"7.0"
"1530208858408";"6.0"
"1530208858429";"5.0"
"1530208858429";"4.0"
"1530208858450";"3.0"
"1530208858454";"2.0"
"1530208858455";"1.0"
"1530208858541";"0.0"
"1530208858605";"-1.0"
"1530208858627";"-2.0"
"1530208858648";"-3.0"
"1530208858649";"-4.0"
"1530208858649";"-5.0"
"1530208858670";"-6.0"
"1530208858670";"-7.0"
"1530208858692";"-8.0"
"1530208858713";"-7.0"
"1530208858714";"-6.0"
"1530208858734";"-5.0"
"1530208858736";"-4.0"
"1530208858757";"-3.0"
"1530208858778";"-2.0"
"1530208858778";"-1.0"
"1530208858778";"0.0"
"1530208858799";"1.0"
"1530208858799";"2.0"
"1530208858820";"3.0"
"1530208858820";"4.0"
"1530208858820";"5.0"
"1530208858841";"6.0"
"1530208858842";"7.0"
"1530208858863";"8.0"
"1530208858863";"9.0"
"1530208858886";"10.0"
"1530208858929";"9.0"
"1530208858952";"8.0"
"1530208858978";"7.0"
"1530208858978";"6.0"
"1530208858978";"5.0"
"1530208858999";"4.0"
"1530208859000";"3.0"
"1530208859000";"2.0"
"1530208859020";"1.0"
"1530208859021";"0.0"
"1530208859043";"-1.0"
"1530208859044";"-2.0"
"1530208859044";"-3.0"
"1530208859044";"-4.0"
"1530208859065";"-5.0"
"1530208859065";"-6.0"
"1530208859087";"-7.0"
"1530208859129";"-6.0"
"1530208859150";"-5.0"
"1530208859152";"-4.0"
"1530208859173";"-3.0"
"1530208859173";"-2.0"
"1530208859194";"-1.0"
"1530208859215";"0.0"
"1530208859279";"-1.0"
"1530208859305";"-2.0"
"1530208859306";"-3.0"
"1530208859327";"-4.0"
"1530208859327";"-5.0"
"1530208859348";"-6.0"
"1530208859379";"-7.0"
"1530208859421";"-8.0"
"1530208859422";"-7.0"
"1530208859454";"-6.0"
"1530208859476";"-5.0"
"1530208859476";"-4.0"
"1530208859476";"-3.0"
"1530208859476";"-2.0"
"1530208859476";"-1.0"
"1530208859499";"0.0"
"1530208859520";"1.0"
"1530208859564";"0.0"
"1530208859586";"-1.0"
"1530208859586";"-2.0"
"1530208859607";"-3.0"
"1530208859608";"-4.0"
"1530208859674";"-3.0"
"1530208859697";"-2.0"
"1530208859697";"-1.0"
"1530208859718";"0.0"
"1530208859738";"1.0"
"1530208859761";"0.0"
"1530208859803";"-1.0"
"1530208859803";"-2.0"
"1530208859803";"-3.0"
"1530208859804";"-4.0"
"1530208859826";"-5.0"
"1530208859826";"-6.0"
"1530208859826";"-8.0"
"1530208859826";"-10.0"
"1530208859826";"-11.0"
"1530208859826";"-13.0"
"1530208859826";"-15.0"
"1530208859847";"-16.0"
"1530208859848";"-18.0"
"1530208859848";"-19.0"
"1530208859848";"-20.0"
"1530208859868";"-21.0"
"1530208859889";"-22.0"
"1530208859891";"-23.0"
"1530208859892";"-24.0"
"1530208859892";"-25.0"
"1530208859892";"-26.0"
"1530208859892";"-28.0"
"1530208859913";"-29.0"
"1530208859913";"-30.0"
"1530208859913";"-32.0"
"1530208859913";"-33.0"
"1530208859913";"-35.0"
"1530208859913";"-36.0"
"1530208859914";"-37.0"
"1530208859935";"-38.0"
"1530208859935";"-39.0"
"1530208859957";"-38.0"
"1530208859958";"-37.0"
"1530208859958";"-36.0"
"1530208859958";"-35.0"
"1530208859958";"-34.0"
"1530208859958";"-32.0"
"1530208859958";"-31.0"
"1530208859980";"-30.0"
"1530208859980";"-29.0"
"1530208859980";"-28.0"
"1530208859980";"-27.0"
"1530208860002";"-28.0"
"1530208860002";"-29.0"
"1530208860023";"-30.0"
"1530208860025";"-32.0"
"1530208860025";"-33.0"
"1530208860025";"-35.0"
"1530208860026";"-37.0"
"1530208860046";"-38.0"
"1530208860047";"-39.0"
"1530208860047";"-40.0"
"1530208860047";"-41.0"
"1530208860047";"-40.0"
"1530208860048";"-39.0"
"1530208860069";"-38.0"
"1530208860069";"-36.0"
"1530208860090";"-35.0"
"1530208860090";"-33.0"
"1530208860090";"-31.0"
"1530208860090";"-29.0"
"1530208860091";"-27.0"
"1530208860091";"-24.0"
"1530208860091";"-21.0"
"1530208860091";"-18.0"
"1530208860111";"-14.0"
"1530208860112";"-10.0"
"1530208860112";"-7.0"
"1530208860112";"-3.0"
"1530208860112";"0.0"
"1530208860112";"1.0"
"1530208860112";"3.0"
"1530208860113";"6.0"
"1530208860133";"8.0"
"1530208860133";"10.0"
"1530208860133";"12.0"
"1530208860134";"15.0"
"1530208860134";"17.0"
"1530208860134";"19.0"
"1530208860197";"20.0"
"1530208860241";"21.0"
"1530208860318";"22.0"
"1530208860319";"20.0"
"1530208860319";"18.0"
"1530208860319";"16.0"
"1530208860319";"15.0"
"1530208860319";"13.0"
"1530208860319";"11.0"
"1530208860319";"10.0"
"1530208860319";"8.0"
"1530208860340";"6.0"
"1530208860340";"5.0"
"1530208860340";"3.0"
"1530208860340";"2.0"
"1530208860340";"0.0"
"1530208860340";"-1.0"
"1530208860361";"-2.0"
"1530208860364";"-4.0"
"1530208860365";"-5.0"
"1530208860386";"-6.0"
"1530208860386";"-8.0"
"1530208860386";"-9.0"
"1530208860386";"-10.0"
"1530208860387";"-11.0"
"1530208860387";"-12.0"
"1530208860387";"-13.0"
"1530208860442";"-14.0"
"1530208860442";"-15.0"
"1530208860443";"-17.0"
"1530208860463";"-18.0"
"1530208860464";"-19.0"
"1530208860464";"-20.0"
"1530208860464";"-21.0"
"1530208860464";"-22.0"
"1530208860464";"-23.0"
"1530208860464";"-25.0"
"1530208860464";"-26.0"
"1530208860466";"-27.0"
"1530208860466";"-28.0"
"1530208860466";"-29.0"
"1530208860466";"-30.0"
"1530208860466";"-31.0"
"1530208860466";"-32.0"
"1530208860466";"-33.0"
"1530208860466";"-34.0"
"1530208860466";"-35.0"
"1530208860467";"-36.0"
"1530208860467";"-38.0"
"1530208860467";"-39.0"
"1530208860467";"-40.0"
"1530208860467";"-41.0"
"1530208860487";"-42.0"
"1530208860488";"-43.0"
"1530208860488";"-44.0"
"1530208860489";"-45.0"
"1530208860489";"-46.0"
"1530208860489";"-47.0"
"1530208860489";"-48.0"
"1530208860510";"-49.0"
"1530208860510";"-50.0"
"1530208860510";"-51.0"
"1530208860510";"-52.0"
"1530208860531";"-53.0"
"1530208860532";"-54.0"
"1530208860532";"-55.0"
"1530208860532";"-56.0"
"1530208860554";"-57.0"
"1530208860554";"-58.0"
"1530208860557";"-59.0"
"1530208860557";"-60.0"
"1530208860578";"-61.0"
"1530208860579";"-62.0"
"1530208860579";"-63.0"
"1530208860579";"-65.0"
"1530208860579";"-66.0"
"1530208860579";"-68.0"
"1530208860600";"-70.0"
"1530208860600";"-71.0"
"1530208860600";"-73.0"
"1530208860601";"-75.0"
"1530208860601";"-76.0"
"1530208860601";"-77.0"
"1530208860601";"-78.0"
"1530208860601";"-79.0"
"1530208860644";"-78.0"
"1530208860645";"-77.0"
"1530208860645";"-76.0"
"1530208860645";"-75.0"
"1530208860666";"-73.0"
"1530208860667";"-72.0"
"1530208860667";"-71.0"
"1530208860667";"-70.0"
"1530208860667";"-69.0"
"1530208860667";"-68.0"
"1530208860688";"-67.0"
"1530208860689";"-65.0"
"1530208860689";"-64.0"
"1530208860691";"-63.0"
"1530208860691";"-62.0"
"1530208860712";"-61.0"
"1530208860713";"-60.0"
"1530208860713";"-59.0"
"1530208860713";"-58.0"
"1530208860713";"-57.0"
"1530208860713";"-56.0"
"1530208860734";"-55.0"
"1530208860734";"-54.0"
"1530208860734";"-53.0"
"1530208860756";"-52.0"
"1530208860756";"-51.0"
"1530208860777";"-50.0"
"1530208860777";"-49.0"
"1530208860777";"-48.0"
"1530208860798";"-49.0"
"1530208860819";"-50.0"
"1530208860819";"-51.0"
"1530208860821";"-52.0"
"1530208860842";"-53.0"
"1530208860842";"-52.0"
"1530208860863";"-51.0"
"1530208860863";"-50.0"
"1530208860863";"-49.0"
"1530208860884";"-48.0"
"1530208860884";"-47.0"
"1530208860885";"-46.0"
"1530208860886";"-45.0"
"1530208860887";"-44.0"
"1530208860887";"-43.0"
"1530208860887";"-41.0"
"1530208860908";"-40.0"
"1530208860909";"-39.0"
"1530208860909";"-38.0"
"1530208860909";"-37.0"
"1530208860909";"-36.0"
"1530208860930";"-35.0"
"1530208860930";"-34.0"
"1530208860931";"-33.0"
"1530208860931";"-34.0"
"1530208860931";"-35.0"
"1530208860951";"-36.0"
"1530208860953";"-37.0"
"1530208860953";"-38.0"
"1530208860953";"-40.0"
"1530208860953";"-42.0"
"1530208860953";"-43.0"
"1530208860974";"-45.0"
"1530208860974";"-47.0"
"1530208860974";"-49.0"
"1530208860974";"-51.0"
"1530208860995";"-53.0"
"1530208860996";"-54.0"
"1530208860996";"-56.0"
"1530208860996";"-57.0"
"1530208860996";"-58.0"
"1530208860996";"-60.0"
"1530208861017";"-61.0"
"1530208861017";"-62.0"
"1530208861017";"-63.0"
"1530208861060";"-64.0"
"1530208861060";"-63.0"
"1530208861061";"-62.0"
"1530208861081";"-61.0"
"1530208861081";"-60.0"
"1530208861081";"-59.0"
"1530208861082";"-57.0"
"1530208861082";"-55.0"
"1530208861083";"-53.0"
"1530208861104";"-51.0"
"1530208861104";"-49.0"
"1530208861104";"-46.0"
"1530208861104";"-44.0"
"1530208861104";"-41.0"
"1530208861104";"-38.0"
"1530208861104";"-36.0"
"1530208861125";"-33.0"
"1530208861126";"-30.0"
"1530208861126";"-27.0"
"1530208861126";"-24.0"
"1530208861126";"-22.0"
"1530208861147";"-19.0"
"1530208861147";"-16.0"
"1530208861147";"-13.0"
"1530208861147";"-11.0"
"1530208861148";"-8.0"
"1530208861148";"-6.0"
"1530208861148";"-4.0"
"1530208861149";"-2.0"
"1530208861149";"0.0"
"1530208861170";"2.0"
"1530208861170";"3.0"
"1530208861170";"5.0"
"1530208861170";"6.0"
"1530208861170";"7.0"
"1530208861170";"8.0"
"1530208861191";"9.0"
"1530208861191";"10.0"
"1530208861212";"11.0"
"1530208861212";"10.0"
"1530208861234";"9.0"
"1530208861234";"8.0"
"1530208861235";"7.0"
"1530208861278";"6.0"
"1530208861300";"5.0"
"1530208861300";"4.0"
"1530208861321";"3.0"
"1530208861321";"2.0"
"1530208861321";"1.0"
"1530208861321";"0.0"
"1530208861342";"-1.0"
"1530208861342";"-2.0"
"1530208861342";"-4.0"
"1530208861342";"-5.0"
"1530208861344";"-6.0"
"1530208861365";"-8.0"
"1530208861365";"-9.0"
"1530208861365";"-11.0"
"1530208861365";"-12.0"
"1530208861365";"-14.0"
"1530208861365";"-15.0"
"1530208861414";"-17.0"
"1530208861414";"-19.0"
"1530208861435";"-21.0"
"1530208861435";"-23.0"
"1530208861436";"-24.0"
"1530208861436";"-26.0"
"1530208861436";"-28.0"
"1530208861436";"-31.0"
"1530208861436";"-33.0"
"1530208861436";"-35.0"
"1530208861436";"-38.0"
"1530208861436";"-41.0"
"1530208861461";"-44.0"
"1530208861463";"-47.0"
"1530208861463";"-50.0"
"1530208861484";"-53.0"
"1530208861484";"-56.0"
"1530208861484";"-59.0"
"1530208861484";"-62.0"
"1530208861484";"-66.0"
"1530208861484";"-69.0"
"1530208861485";"-72.0"
"1530208861485";"-75.0"
"1530208861485";"-78.0"
"1530208861485";"-82.0"
"1530208861485";"-85.0"
"1530208861485";"-88.0"
"1530208861485";"-90.0"
"1530208861485";"-93.0"
"1530208861485";"-96.0"
"1530208861485";"-99.0"
"1530208861485";"-101.0"
"1530208861485";"-104.0"
"1530208861487";"-107.0"
"1530208861487";"-109.0"
"1530208861487";"-112.0"
"1530208861508";"-115.0"
"1530208861508";"-117.0"
"1530208861508";"-120.0"
"1530208861508";"-122.0"
"1530208861509";"-124.0"
"1530208861509";"-126.0"
"1530208861530";"-128.0"
"1530208861530";"-130.0"
"1530208861530";"-132.0"
"1530208861530";"-133.0"
"1530208861530";"-134.0"
"1530208861530";"-136.0"
"1530208861530";"-137.0"
"1530208861551";"-138.0"
"1530208861552";"-139.0"
"1530208861552";"-140.0"
"1530208861574";"-139.0"
"1530208861574";"-138.0"
"1530208861574";"-137.0"
"1530208861575";"-136.0"
"1530208861596";"-134.0"
"1530208861596";"-133.0"
"1530208861596";"-131.0"
"1530208861597";"-129.0"
"1530208861597";"-127.0"
"1530208861597";"-125.0"
"1530208861618";"-123.0"
"1530208861619";"-121.0"
"1530208861619";"-118.0"
"1530208861621";"-115.0"
"1530208861621";"-112.0"
"1530208861621";"-109.0"
"1530208861621";"-106.0"
"1530208861642";"-103.0"
"1530208861642";"-100.0"
"1530208861642";"-96.0"
"1530208861643";"-93.0"
"1530208861643";"-90.0"
"1530208861643";"-87.0"
"1530208861663";"-84.0"
"1530208861663";"-81.0"
"1530208861664";"-79.0"
"1530208861664";"-76.0"
"1530208861664";"-74.0"
"1530208861664";"-71.0"
"1530208861664";"-69.0"
"1530208861664";"-67.0"
"1530208861664";"-66.0"
"1530208861685";"-64.0"
"1530208861686";"-63.0"
"1530208861686";"-61.0"
"1530208861687";"-60.0"
"1530208861687";"-58.0"
"1530208861707";"-57.0"
"1530208861708";"-55.0"
"1530208861708";"-53.0"
"1530208861708";"-51.0"
"1530208861708";"-49.0"
"1530208861708";"-46.0"
"1530208861708";"-44.0"
"1530208861729";"-42.0"
"1530208861729";"-40.0"
"1530208861729";"-37.0"
"1530208861729";"-35.0"
"1530208861729";"-32.0"
"1530208861729";"-29.0"
"1530208861750";"-27.0"
"1530208861751";"-24.0"
"1530208861751";"-22.0"
"1530208861752";"-19.0"
"1530208861752";"-17.0"
"1530208861752";"-15.0"
"1530208861773";"-13.0"
"1530208861773";"-11.0"
"1530208861773";"-9.0"
"1530208861773";"-7.0"
"1530208861773";"-5.0"
"1530208861774";"-3.0"
"1530208861794";"-1.0"
"1530208861794";"0.0"
"1530208861795";"1.0"
"1530208861795";"3.0"
"1530208861795";"5.0"
"1530208861795";"7.0"
"1530208861816";"9.0"
"1530208861816";"11.0"
"1530208861816";"13.0"
"1530208861816";"15.0"
"1530208861816";"18.0"
"1530208861817";"20.0"
"1530208861838";"22.0"
"1530208861838";"25.0"
"1530208861839";"27.0"
"1530208861839";"29.0"
"1530208861839";"31.0"
"1530208861839";"33.0"
"1530208861839";"34.0"
"1530208861860";"37.0"
"1530208861860";"39.0"
"1530208861860";"41.0"
"1530208861860";"44.0"
"1530208861860";"46.0"
"1530208861860";"49.0"
"1530208861861";"52.0"
"1530208861861";"55.0"
"1530208861905";"56.0"
"1530208861905";"57.0"
"1530208861947";"58.0"
"1530208861947";"59.0"
"1530208861969";"60.0"
"1530208861970";"61.0"
"1530208861990";"62.0"
"1530208861991";"63.0"
"1530208861991";"64.0"
"1530208861991";"65.0"
"1530208862012";"66.0"
"1530208862013";"67.0"
"1530208862034";"68.0"
"1530208862035";"69.0"
"1530208862035";"70.0"
"1530208862056";"71.0"
"1530208862056";"72.0"
"1530208862056";"73.0"
"1530208862077";"74.0"
"1530208862077";"75.0"
"1530208862080";"76.0"
"1530208862102";"77.0"
"1530208862102";"78.0"
"1530208862102";"79.0"
"1530208862123";"80.0"
"1530208862124";"81.0"
"1530208862146";"82.0"
"1530208862148";"83.0"
"1530208862169";"84.0"
"1530208862190";"85.0"
"1530208862211";"86.0"
"1530208862212";"87.0"
"1530208862233";"85.0"
"1530208862233";"82.0"
"1530208862234";"79.0"
"1530208862234";"76.0"
"1530208862234";"73.0"
"1530208862255";"70.0"
"1530208862255";"67.0"
"1530208862255";"64.0"
"1530208862255";"61.0"
"1530208862255";"58.0"
"1530208862255";"55.0"
"1530208862276";"53.0"
"1530208862276";"50.0"
"1530208862277";"48.0"
"1530208862277";"45.0"
"1530208862277";"43.0"
"1530208862278";"41.0"
"1530208862299";"39.0"
"1530208862299";"38.0"
"1530208862300";"36.0"
"1530208862300";"34.0"
"1530208862300";"32.0"
"1530208862300";"31.0"
"1530208862300";"30.0"
"1530208862321";"28.0"
"1530208862321";"27.0"
"1530208862321";"25.0"
"1530208862322";"24.0"
"1530208862322";"23.0"
"1530208862342";"21.0"
"1530208862343";"20.0"
"1530208862343";"19.0"
"1530208862343";"17.0"
"1530208862343";"16.0"
"1530208862343";"15.0"
"1530208862364";"13.0"
"1530208862365";"12.0"
"1530208862366";"11.0"
"1530208862366";"10.0"
"1530208862366";"8.0"
"1530208862366";"7.0"
"1530208862366";"6.0"
"1530208862366";"5.0"
"1530208862366";"4.0"
"1530208862387";"3.0"
"1530208862387";"2.0"
"1530208862387";"1.0"
"1530208862387";"0.0"
"1530208862408";"-1.0"
"1530208862408";"-2.0"
"1530208862408";"-3.0"
"1530208862462";"-4.0"
"1530208862483";"-5.0"
"1530208862484";"-6.0"
"1530208862484";"-7.0"
"1530208862484";"-8.0"
"1530208862484";"-9.0"
"1530208862484";"-10.0"
"1530208862484";"-11.0"
"1530208862484";"-12.0"
"1530208862505";"-13.0"
"1530208862506";"-14.0"
"1530208862527";"-15.0"
"1530208862527";"-16.0"
"1530208862527";"-17.0"
"1530208862569";"-16.0"
"1530208862571";"-15.0"
"1530208862571";"-14.0"
"1530208862572";"-13.0"
"1530208862572";"-12.0"
"1530208862593";"-11.0"
"1530208862593";"-10.0"
"1530208862593";"-9.0"
"1530208862593";"-8.0"
"1530208862593";"-7.0"
"1530208862593";"-6.0"
"1530208862593";"-5.0"
"1530208862593";"-4.0"
"1530208862593";"-2.0"
"1530208862594";"-1.0"
"1530208862614";"0.0"
"1530208862614";"1.0"
"1530208862614";"2.0"
"1530208862616";"3.0"
"1530208862636";"4.0"
"1530208862636";"5.0"
"1530208862658";"4.0"
"1530208862679";"3.0"
"1530208862679";"2.0"
"1530208862702";"1.0"
"1530208862702";"0.0"
"1530208862723";"1.0"
"1530208862723";"2.0"
"1530208862723";"3.0"
"1530208862723";"4.0"
"1530208862723";"5.0"
"1530208862744";"6.0"
"1530208862744";"7.0"
"1530208862748";"8.0"
"1530208862770";"10.0"
"1530208862771";"11.0"
"1530208862771";"12.0"
"1530208862771";"14.0"
"1530208862771";"15.0"
"1530208862771";"17.0"
"1530208862792";"19.0"
"1530208862792";"21.0"
"1530208862792";"22.0"
"1530208862792";"24.0"
"1530208862793";"26.0"
"1530208862793";"28.0"
"1530208862814";"29.0"
"1530208862814";"31.0"
"1530208862814";"33.0"
"1530208862814";"34.0"
"1530208862814";"35.0"
"1530208862814";"37.0"
"1530208862814";"38.0"
"1530208862835";"40.0"
"1530208862836";"41.0"
"1530208862836";"43.0"
"1530208862836";"44.0"
"1530208862836";"45.0"
"1530208862836";"47.0"
"1530208862836";"48.0"
"1530208862836";"49.0"
"1530208862836";"51.0"
"1530208862857";"52.0"
"1530208862857";"53.0"
"1530208862857";"54.0"
"1530208862857";"55.0"
"1530208862857";"56.0"
"1530208862858";"57.0"
"1530208862878";"58.0"
"1530208862879";"59.0"
"1530208862880";"60.0"
"1530208862902";"61.0"
"1530208862902";"62.0"
"1530208862923";"63.0"
"1530208862944";"64.0"
"1530208862944";"65.0"
"1530208862945";"66.0"
"1530208862966";"65.0"
"1530208862987";"64.0"
"1530208862987";"63.0"
"1530208862987";"62.0"
"1530208863010";"61.0"
"1530208863010";"60.0"
"1530208863010";"59.0"
"1530208863010";"58.0"
"1530208863010";"57.0"
"1530208863033";"56.0"
"1530208863033";"54.0"
"1530208863034";"53.0"
"1530208863034";"51.0"
"1530208863034";"49.0"
"1530208863034";"47.0"
"1530208863034";"46.0"
"1530208863055";"44.0"
"1530208863055";"43.0"
"1530208863056";"42.0"
"1530208863056";"41.0"
"1530208863056";"40.0"
"1530208863056";"39.0"
"1530208863077";"38.0"
"1530208863077";"37.0"
"1530208863077";"36.0"
"1530208863141";"35.0"
"1530208863163";"34.0"
"1530208863163";"33.0"
"1530208863184";"32.0"
"1530208863184";"31.0"
"1530208863184";"30.0"
"1530208863205";"29.0"
"1530208863206";"28.0"
"1530208863206";"27.0"
"1530208863226";"26.0"
"1530208863227";"25.0"
"1530208863229";"24.0"
"1530208863229";"23.0"
"1530208863229";"22.0"
"1530208863229";"21.0"
"1530208863229";"20.0"
"1530208863250";"19.0"
"1530208863250";"18.0"
"1530208863250";"17.0"
"1530208863250";"16.0"
"1530208863251";"15.0"
"1530208863251";"14.0"
"1530208863251";"13.0"
"1530208863251";"12.0"
"1530208863271";"11.0"
"1530208863272";"10.0"
"1530208863315";"11.0"
"1530208863315";"12.0"
"1530208863315";"13.0"
"1530208863315";"14.0"
"1530208863336";"15.0"
"1530208863336";"16.0"
"1530208863336";"17.0"
"1530208863336";"18.0"
"1530208863336";"19.0"
"1530208863336";"20.0"
"1530208863360";"21.0"
"1530208863360";"22.0"
"1530208863381";"23.0"
"1530208863381";"24.0"
"1530208863381";"25.0"
"1530208863381";"26.0"
"1530208863402";"27.0"
"1530208863423";"28.0"
"1530208863424";"29.0"
"1530208863424";"30.0"
"1530208863424";"31.0"
"1530208863424";"32.0"
"1530208863424";"33.0"
"1530208863425";"34.0"
"1530208863461";"35.0"
"1530208863461";"36.0"
"1530208863481";"37.0"
"1530208863482";"38.0"
"1530208863482";"37.0"
"1530208863483";"36.0"
"1530208863483";"35.0"
"1530208863504";"34.0"
"1530208863504";"33.0"
"1530208863525";"32.0"
"1530208863525";"31.0"
"1530208863526";"30.0"
"1530208863526";"31.0"
"1530208863568";"32.0"
"1530208863569";"33.0"
"1530208863569";"34.0"
"1530208863569";"35.0"
"1530208863569";"36.0"
"1530208863570";"37.0"
"1530208863570";"38.0"
"1530208863591";"39.0"
"1530208863591";"40.0"
"1530208863591";"41.0"
"1530208863591";"42.0"
"1530208863613";"43.0"
"1530208863613";"44.0"
"1530208863613";"45.0"
"1530208863613";"46.0"
"1530208863613";"47.0"
"1530208863638";"48.0"
"1530208863638";"49.0"
"1530208863660";"48.0"
"1530208863681";"47.0"
"1530208863745";"46.0"
"1530208863748";"45.0"
"1530208863769";"44.0"
"1530208863770";"43.0"
"1530208863770";"42.0"
"1530208863770";"41.0"
"1530208863770";"40.0"
"1530208863770";"38.0"
"1530208863791";"37.0"
"1530208863791";"36.0"
"1530208863791";"34.0"
"1530208863791";"33.0"
"1530208863812";"32.0"
"1530208863813";"30.0"
"1530208863813";"29.0"
"1530208863813";"28.0"
"1530208863813";"26.0"
"1530208863813";"25.0"
"1530208863813";"24.0"
"1530208863815";"23.0"
"1530208863835";"22.0"
"1530208863836";"21.0"
"1530208863836";"20.0"
"1530208863836";"19.0"
"1530208863857";"18.0"
"1530208863899";"19.0"
"1530208863902";"20.0"
"1530208863902";"21.0"
"1530208863923";"22.0"
"1530208863944";"23.0"
"1530208863967";"24.0"
"1530208863988";"25.0"
"1530208864009";"26.0"
"1530208864009";"27.0"
"1530208864031";"26.0"
"1530208864052";"25.0"
"1530208864117";"24.0"
"1530208864117";"23.0"
"1530208864117";"22.0"
"1530208864117";"21.0"
"1530208864117";"20.0"
"1530208864138";"19.0"
"1530208864139";"18.0"
"1530208864139";"17.0"
"1530208864162";"16.0"
"1530208864162";"15.0"
"1530208864183";"14.0"
"1530208864184";"13.0"
"1530208864208";"12.0"
"1530208864208";"11.0"
"1530208864230";"10.0"
"1530208864277";"11.0"
"1530208864299";"12.0"
"1530208864299";"13.0"
"1530208864320";"14.0"
"1530208864341";"13.0"
"1530208864341";"12.0"
"1530208864341";"11.0"
"1530208864363";"10.0"
"1530208864363";"8.0"
"1530208864364";"6.0"
"1530208864364";"4.0"
"1530208864364";"2.0"
"1530208864408";"0.0"
"1530208864408";"-1.0"
"1530208864408";"-3.0"
"1530208864408";"-5.0"
"1530208864429";"-7.0"
"1530208864429";"-10.0"
"1530208864430";"-12.0"
"1530208864451";"-15.0"
"1530208864451";"-18.0"
"1530208864451";"-21.0"
"1530208864451";"-23.0"
"1530208864452";"-26.0"
"1530208864452";"-29.0"
"1530208864452";"-32.0"
"1530208864452";"-35.0"
"1530208864454";"-38.0"
"1530208864454";"-41.0"
"1530208864475";"-45.0"
"1530208864475";"-48.0"
"1530208864475";"-52.0"
"1530208864475";"-55.0"
"1530208864475";"-58.0"
"1530208864475";"-62.0"
"1530208864475";"-65.0"
"1530208864475";"-68.0"
"1530208864475";"-70.0"
"1530208864475";"-73.0"
"1530208864475";"-76.0"
"1530208864475";"-79.0"
"1530208864476";"-82.0"
"1530208864476";"-85.0"
"1530208864476";"-87.0"
"1530208864476";"-90.0"
"1530208864476";"-92.0"
"1530208864496";"-94.0"
"1530208864498";"-96.0"
"1530208864498";"-97.0"
"1530208864498";"-99.0"
"1530208864498";"-101.0"
"1530208864498";"-103.0"
"1530208864498";"-105.0"
"1530208864498";"-106.0"
"1530208864498";"-108.0"
"1530208864519";"-109.0"
"1530208864519";"-111.0"
"1530208864519";"-112.0"
"1530208864520";"-114.0"
"1530208864520";"-115.0"
"1530208864520";"-117.0"
"1530208864520";"-118.0"
"1530208864540";"-120.0"
"1530208864541";"-122.0"
"1530208864541";"-124.0"
"1530208864562";"-125.0"
"1530208864562";"-127.0"
"1530208864567";"-129.0"
"1530208864568";"-130.0"
"1530208864569";"-132.0"
"1530208864569";"-133.0"
"1530208864569";"-135.0"
"1530208864569";"-136.0"
"1530208864570";"-138.0"
"1530208864590";"-140.0"
"1530208864591";"-141.0"
"1530208864591";"-143.0"
"1530208864591";"-144.0"
"1530208864591";"-146.0"
"1530208864591";"-147.0"
"1530208864612";"-149.0"
"1530208864612";"-150.0"
"1530208864612";"-151.0"
"1530208864612";"-153.0"
"1530208864612";"-155.0"
"1530208864612";"-156.0"
"1530208864612";"-158.0"
"1530208864634";"-159.0"
"1530208864634";"-161.0"
"1530208864634";"-162.0"
"1530208864634";"-164.0"
"1530208864634";"-165.0"
"1530208864634";"-166.0"
"1530208864655";"-167.0"
"1530208864655";"-166.0"
"1530208864655";"-165.0"
"1530208864655";"-164.0"
"1530208864676";"-163.0"
"1530208864676";"-161.0"
"1530208864676";"-159.0"
"1530208864676";"-158.0"
"1530208864676";"-156.0"
"1530208864677";"-154.0"
"1530208864697";"-151.0"
"1530208864698";"-149.0"
"1530208864698";"-147.0"
"1530208864698";"-144.0"
"1530208864698";"-142.0"
"1530208864698";"-139.0"
"1530208864718";"-137.0"
"1530208864719";"-134.0"
"1530208864719";"-131.0"
"1530208864719";"-129.0"
"1530208864719";"-126.0"
"1530208864740";"-123.0"
"1530208864740";"-121.0"
"1530208864740";"-118.0"
"1530208864740";"-115.0"
"1530208864740";"-113.0"
"1530208864740";"-110.0"
"1530208864741";"-107.0"
"1530208864741";"-104.0"
"1530208864741";"-102.0"
"1530208864742";"-99.0"
"1530208864763";"-96.0"
"1530208864763";"-94.0"
"1530208864763";"-91.0"
"1530208864784";"-88.0"
"1530208864784";"-85.0"
"1530208864784";"-83.0"
"1530208864784";"-80.0"
"1530208864784";"-77.0"
"1530208864784";"-74.0"
"1530208864785";"-72.0"
"1530208864785";"-69.0"
"1530208864805";"-66.0"
"1530208864806";"-64.0"
"1530208864806";"-61.0"
"1530208864806";"-58.0"
"1530208864827";"-55.0"
"1530208864827";"-53.0"
"1530208864827";"-50.0"
"1530208864828";"-48.0"
"1530208864829";"-45.0"
"1530208864829";"-42.0"
"1530208864849";"-40.0"
"1530208864850";"-37.0"
"1530208864850";"-34.0"
"1530208864850";"-32.0"
"1530208864850";"-29.0"
"1530208864850";"-27.0"
"1530208864850";"-25.0"
"1530208864850";"-22.0"
"1530208864850";"-20.0"
"1530208864850";"-18.0"
"1530208864871";"-16.0"
"1530208864871";"-14.0"
"1530208864871";"-12.0"
"1530208864872";"-10.0"
"1530208864872";"-9.0"
"1530208864872";"-7.0"
"1530208864893";"-5.0"
"1530208864894";"-4.0"
"1530208864895";"-2.0"
"1530208864895";"-1.0"
"1530208864896";"0.0"
"1530208864896";"1.0"
"1530208864896";"2.0"
"1530208864896";"3.0"
"1530208864896";"5.0"
"1530208864917";"6.0"
"1530208864917";"7.0"
"1530208864917";"8.0"
"1530208864938";"9.0"
"1530208864938";"10.0"
"1530208864938";"11.0"
"1530208864938";"12.0"
"1530208864938";"13.0"
"1530208864938";"14.0"
"1530208864961";"15.0"
"1530208864961";"16.0"
"1530208864982";"17.0"
"1530208864982";"18.0"
"1530208864982";"19.0"
"1530208865003";"20.0"
"1530208865046";"21.0"
"1530208865067";"20.0"
"1530208865132";"19.0"
"1530208865133";"18.0"
"1530208865155";"17.0"
"1530208865158";"16.0"
"1530208865264";"15.0"
"1530208865307";"14.0"
"1530208865328";"13.0"
"1530208865349";"12.0"
"1530208865349";"11.0"
"1530208865399";"10.0"
"1530208865420";"9.0"
"1530208865420";"8.0"
"1530208865420";"7.0"
"1530208865421";"6.0"
"1530208865422";"5.0"
"1530208865443";"4.0"
"1530208865465";"3.0"
"1530208865486";"2.0"
"1530208865487";"1.0"
"1530208865487";"2.0"
"1530208865509";"3.0"
"1530208865509";"4.0"
"1530208865509";"5.0"
"1530208865509";"6.0"
"1530208865509";"7.0"
"1530208865510";"8.0"
"1530208865530";"9.0"
"1530208865531";"10.0"
"1530208865531";"11.0"
"1530208865531";"12.0"
"1530208865531";"13.0"
"1530208865552";"14.0"
"1530208865552";"15.0"
"1530208865552";"16.0"
"1530208865552";"17.0"
"1530208865573";"18.0"
"1530208865573";"19.0"
"1530208865573";"20.0"
"1530208865594";"21.0"
"1530208865594";"22.0"
"1530208865615";"23.0"
"1530208865615";"24.0"
"1530208865638";"25.0"
"1530208865638";"26.0"
"1530208865660";"27.0"
"1530208865723";"26.0"
"1530208865724";"25.0"
"1530208865745";"24.0"
"1530208865745";"23.0"
"1530208865769";"22.0"
"1530208865769";"21.0"
"1530208865790";"20.0"
"1530208865791";"19.0"
"1530208865812";"18.0"
"1530208865812";"17.0"
"1530208865812";"16.0"
"1530208865812";"15.0"
"1530208865833";"14.0"
"1530208865833";"13.0"
"1530208865833";"12.0"
"1530208865834";"11.0"
"1530208865854";"10.0"
"1530208865875";"9.0"
"1530208865875";"8.0"
"1530208865897";"7.0"
"1530208865897";"6.0"
"1530208865897";"5.0"
"1530208865918";"4.0"
"1530208865918";"3.0"
"1530208865918";"2.0"
"1530208865918";"1.0"
"1530208865918";"0.0"
"1530208865939";"-1.0"
"1530208865939";"-2.0"
"1530208865939";"-4.0"
"1530208865940";"-5.0"
"1530208865940";"-6.0"
"1530208865940";"-8.0"
"1530208865961";"-10.0"
"1530208865962";"-11.0"
"1530208865963";"-13.0"
"1530208865963";"-15.0"
"1530208865963";"-17.0"
"1530208865963";"-19.0"
"1530208865963";"-21.0"
"1530208865963";"-23.0"
"1530208865963";"-25.0"
"1530208865984";"-27.0"
"1530208865984";"-29.0"
"1530208865984";"-31.0"
"1530208865984";"-32.0"
"1530208865985";"-34.0"
"1530208866005";"-36.0"
"1530208866006";"-37.0"
"1530208866006";"-38.0"
"1530208866006";"-40.0"
"1530208866006";"-41.0"
"1530208866006";"-42.0"
"1530208866028";"-43.0"
"1530208866028";"-44.0"
"1530208866049";"-43.0"
"1530208866050";"-42.0"
"1530208866050";"-41.0"
"1530208866050";"-40.0"
"1530208866071";"-39.0"
"1530208866071";"-38.0"
"1530208866071";"-37.0"
"1530208866071";"-35.0"
"1530208866071";"-34.0"
"1530208866092";"-32.0"
"1530208866092";"-31.0"
"1530208866092";"-29.0"
"1530208866092";"-27.0"
"1530208866092";"-25.0"
"1530208866093";"-23.0"
"1530208866093";"-21.0"
"1530208866113";"-20.0"
"1530208866114";"-18.0"
"1530208866114";"-16.0"
"1530208866114";"-14.0"
"1530208866114";"-13.0"
"1530208866114";"-11.0"
"1530208866114";"-9.0"
"1530208866135";"-8.0"
"1530208866135";"-7.0"
"1530208866135";"-5.0"
"1530208866135";"-4.0"
"1530208866135";"-3.0"
"1530208866135";"-2.0"
"1530208866156";"-1.0"
"1530208866156";"0.0"
"1530208866156";"1.0"
"1530208866177";"2.0"
"1530208866177";"3.0"
"1530208866198";"4.0"
"1530208866198";"5.0"
"1530208866198";"6.0"
"1530208866199";"7.0"
"1530208866199";"8.0"
"1530208866199";"9.0"
"1530208866220";"10.0"
"1530208866220";"11.0"
"1530208866222";"12.0"
"1530208866243";"13.0"
"1530208866285";"12.0"
"1530208866306";"11.0"
"1530208866327";"10.0"
"1530208866327";"9.0"
"1530208866348";"8.0"
"1530208866369";"7.0"
"1530208866437";"8.0"
"1530208866479";"9.0"
"1530208866480";"10.0"
"1530208866480";"9.0"
"1530208866501";"10.0"
"1530208866501";"11.0"
"1530208866502";"12.0"
"1530208866523";"13.0"
"1530208866523";"14.0"
"1530208866544";"15.0"
"1530208866545";"16.0"
"1530208866545";"17.0"
"1530208866546";"18.0"
"1530208866546";"19.0"
"1530208866567";"20.0"
"1530208866567";"21.0"
"1530208866568";"22.0"
"1530208866568";"23.0"
"1530208866589";"24.0"
"1530208866610";"25.0"
"1530208866610";"26.0"
"1530208866631";"27.0"
"1530208866632";"28.0"
"1530208866673";"27.0"
"1530208866674";"26.0"
"1530208866695";"25.0"
"1530208866716";"24.0"
"1530208866716";"23.0"
"1530208866716";"22.0"
"1530208866716";"21.0"
"1530208866737";"20.0"
"1530208866737";"19.0"
"1530208866737";"18.0"
"1530208866737";"17.0"
"1530208866758";"16.0"
"1530208866760";"15.0"
"1530208866760";"14.0"
"1530208866760";"13.0"
"1530208866781";"12.0"
"1530208866781";"11.0"
"1530208866782";"10.0"
"1530208866782";"9.0"
"1530208866782";"8.0"
"1530208866804";"7.0"
"1530208866804";"6.0"
"1530208866804";"5.0"
"1530208866825";"4.0"
"1530208866825";"3.0"
"1530208866825";"2.0"
"1530208866867";"3.0"
"1530208866888";"4.0"
"1530208866888";"5.0"
"1530208866910";"6.0"
"1530208866931";"5.0"
"1530208866933";"4.0"
"1530208866953";"3.0"
"1530208866954";"2.0"
"1530208866954";"1.0"
"1530208866954";"0.0"
"1530208866975";"-1.0"
"1530208866996";"-2.0"
"1530208866996";"-3.0"
"1530208867017";"-4.0"
"1530208867017";"-5.0"
"1530208867038";"-6.0"
"1530208867038";"-7.0"
"1530208867058";"-8.0"
"1530208867059";"-9.0"
"1530208867059";"-10.0"
"1530208867059";"-11.0"
"1530208867059";"-12.0"
"1530208867080";"-13.0"
"1530208867080";"-14.0"
"1530208867080";"-15.0"
"1530208867081";"-16.0"
"1530208867081";"-17.0"
"1530208867102";"-18.0"
"1530208867103";"-19.0"
"1530208867103";"-20.0"
"1530208867103";"-21.0"
"1530208867124";"-22.0"
"1530208867125";"-21.0"
"1530208867146";"-20.0"
"1530208867146";"-19.0"
"1530208867169";"-18.0"
"1530208867169";"-17.0"
"1530208867169";"-16.0"
"1530208867190";"-15.0"
"1530208867190";"-14.0"
"1530208867211";"-13.0"
"1530208867211";"-12.0"
"1530208867212";"-11.0"
"1530208867253";"-10.0"
"1530208867254";"-9.0"
"1530208867274";"-8.0"
"1530208867275";"-7.0"
"1530208867296";"-6.0"
"1530208867296";"-5.0"
"1530208867338";"-6.0"
"1530208867338";"-7.0"
"1530208867338";"-8.0"
"1530208867359";"-9.0"
"1530208867361";"-10.0"
"1530208867382";"-11.0"
"1530208867382";"-12.0"
"1530208867382";"-13.0"
"1530208867382";"-14.0"
"1530208867382";"-15.0"
"1530208867403";"-16.0"
"1530208867403";"-17.0"
"1530208867403";"-18.0"
"1530208867403";"-19.0"
"1530208867404";"-20.0"
"1530208867472";"-19.0"
"1530208867472";"-18.0"
"1530208867472";"-17.0"
"1530208867472";"-16.0"
"1530208867472";"-15.0"
"1530208867473";"-14.0"
"1530208867473";"-12.0"
"1530208867473";"-11.0"
"1530208867473";"-9.0"
"1530208867473";"-8.0"
"1530208867473";"-6.0"
"1530208867473";"-4.0"
"1530208867473";"-3.0"
"1530208867473";"-1.0"
"1530208867494";"0.0"
"1530208867496";"1.0"
"1530208867496";"2.0"
"1530208867496";"4.0"
"1530208867496";"5.0"
"1530208867517";"7.0"
"1530208867517";"9.0"
"1530208867517";"10.0"
"1530208867518";"11.0"
"1530208867518";"13.0"
"1530208867518";"14.0"
"1530208867518";"15.0"
"1530208867539";"17.0"
"1530208867539";"18.0"
"1530208867539";"19.0"
"1530208867539";"20.0"
"1530208867539";"21.0"
"1530208867539";"22.0"
"1530208867560";"23.0"
"1530208867560";"24.0"
"1530208867561";"25.0"
"1530208867561";"26.0"
"1530208867561";"28.0"
"1530208867561";"29.0"
"1530208867561";"30.0"
"1530208867561";"31.0"
"1530208867582";"33.0"
"1530208867582";"35.0"
"1530208867583";"36.0"
"1530208867583";"38.0"
"1530208867583";"40.0"
"1530208867583";"41.0"
"1530208867583";"43.0"
"1530208867603";"44.0"
"1530208867604";"46.0"
"1530208867604";"47.0"
"1530208867624";"48.0"
"1530208867625";"50.0"
"1530208867625";"51.0"
"1530208867625";"52.0"
"1530208867625";"53.0"
"1530208867646";"52.0"
"1530208867646";"51.0"
"1530208867647";"50.0"
"1530208867647";"49.0"
"1530208867647";"48.0"
"1530208867667";"47.0"
"1530208867668";"46.0"
"1530208867668";"45.0"
"1530208867668";"43.0"
"1530208867668";"42.0"
"1530208867668";"40.0"
"1530208867689";"39.0"
"1530208867690";"37.0"
"1530208867690";"36.0"
"1530208867690";"34.0"
"1530208867691";"33.0"
"1530208867691";"31.0"
"1530208867712";"30.0"
"1530208867713";"29.0"
"1530208867713";"27.0"
"1530208867713";"26.0"
"1530208867713";"25.0"
"1530208867713";"24.0"
"1530208867714";"22.0"
"1530208867714";"21.0"
"1530208867714";"20.0"
"1530208867735";"19.0"
"1530208867735";"18.0"
"1530208867735";"17.0"
"1530208867735";"15.0"
"1530208867735";"14.0"
"1530208867735";"13.0"
"1530208867756";"12.0"
"1530208867756";"11.0"
"1530208867758";"9.0"
"1530208867758";"8.0"
"1530208867758";"7.0"
"1530208867758";"5.0"
"1530208867779";"4.0"
"1530208867779";"3.0"
"1530208867779";"1.0"
"1530208867779";"0.0"
"1530208867800";"-1.0"
"1530208867800";"-2.0"
"1530208867800";"-3.0"
"1530208867800";"-4.0"
"1530208867824";"-3.0"
"1530208867845";"-2.0"
"1530208867845";"-1.0"
"1530208867867";"0.0"
"1530208867888";"1.0"
"1530208867888";"2.0"
"1530208867891";"3.0"
"1530208867892";"4.0"
"1530208867914";"5.0"
"1530208867914";"6.0"
"1530208867914";"7.0"
"1530208867914";"8.0"
"1530208867935";"9.0"
"1530208867936";"10.0"
"1530208867936";"11.0"
"1530208867936";"12.0"
"1530208867958";"11.0"
"1530208867958";"10.0"
"1530208867979";"9.0"
"1530208867979";"8.0"
"1530208868000";"7.0"
"1530208868000";"6.0"
"1530208868024";"7.0"
"1530208868026";"8.0"
"1530208868026";"9.0"
"1530208868047";"10.0"
"1530208868047";"11.0"
"1530208868047";"12.0"
"1530208868048";"13.0"
"1530208868048";"14.0"
"1530208868069";"15.0"
"1530208868069";"16.0"
"1530208868069";"17.0"
"1530208868069";"18.0"
"1530208868090";"19.0"
"1530208868091";"20.0"
"1530208868133";"19.0"
"1530208868154";"18.0"
"1530208868155";"17.0"
"1530208868176";"16.0"
"1530208868176";"15.0"
"1530208868197";"14.0"
"1530208868238";"15.0"
"1530208868259";"16.0"
"1530208868281";"17.0"
"1530208868281";"18.0"
"1530208868281";"19.0"
"1530208868302";"20.0"
"1530208868302";"21.0"
"1530208868323";"22.0"
"1530208868388";"21.0"
"1530208868433";"20.0"
"1530208868455";"19.0"
"1530208868476";"18.0"
"1530208868476";"17.0"
"1530208868499";"18.0"
"1530208868500";"19.0"
"1530208868500";"20.0"
"1530208868521";"21.0"
"1530208868521";"22.0"
"1530208868521";"23.0"
"1530208868521";"24.0"
"1530208868521";"25.0"
"1530208868521";"26.0"
"1530208868521";"27.0"
"1530208868542";"28.0"
"1530208868542";"29.0"
"1530208868542";"30.0"
"1530208868542";"31.0"
"1530208868563";"32.0"
"1530208868564";"33.0"
"1530208868564";"34.0"
"1530208868564";"35.0"
"1530208868585";"36.0"
"1530208868585";"37.0"
"1530208868606";"36.0"
"1530208868627";"35.0"
"1530208868649";"34.0"
"1530208868649";"33.0"
"1530208868670";"32.0"
"1530208868671";"31.0"
"1530208868671";"30.0"
"1530208868692";"29.0"
"1530208868692";"28.0"
"1530208868693";"26.0"
"1530208868693";"25.0"
"1530208868693";"24.0"
"1530208868694";"23.0"
"1530208868694";"21.0"
"1530208868694";"19.0"
"1530208868694";"18.0"
"1530208868715";"16.0"
"1530208868715";"14.0"
"1530208868715";"13.0"
"1530208868715";"11.0"
"1530208868715";"9.0"
"1530208868736";"7.0"
"1530208868737";"5.0"
"1530208868737";"4.0"
"1530208868737";"2.0"
"1530208868737";"0.0"
"1530208868737";"-1.0"
"1530208868758";"-3.0"
"1530208868758";"-4.0"
"1530208868758";"-5.0"
"1530208868758";"-6.0"
"1530208868759";"-7.0"
"1530208868759";"-8.0"
"1530208868779";"-9.0"
"1530208868780";"-10.0"
"1530208868821";"-9.0"
"1530208868842";"-8.0"
"1530208868843";"-7.0"
"1530208868863";"-6.0"
"1530208868864";"-5.0"
"1530208868864";"-4.0"
"1530208868864";"-3.0"
"1530208868864";"-2.0"
"1530208868884";"-1.0"
"1530208868885";"0.0"
"1530208868885";"1.0"
"1530208868906";"2.0"
"1530208868906";"3.0"
"1530208868906";"4.0"
"1530208868907";"5.0"
"1530208868927";"6.0"
"1530208868928";"7.0"
"1530208868928";"8.0"
"1530208868949";"9.0"
"1530208868949";"10.0"
"1530208868949";"11.0"
"1530208868949";"12.0"
"1530208868970";"13.0"
"1530208868970";"14.0"
"1530208869012";"13.0"
"1530208869012";"12.0"
"1530208869012";"11.0"
"1530208869012";"10.0"
"1530208869012";"9.0"
"1530208869033";"8.0"
"1530208869033";"7.0"
"1530208869033";"6.0"
"1530208869054";"5.0"
"1530208869054";"4.0"
"1530208869054";"3.0"
"1530208869075";"2.0"
"1530208869076";"1.0"
"1530208869076";"0.0"
"1530208869098";"-1.0"
"1530208869098";"-2.0"
"1530208869119";"-3.0"
"1530208869119";"-4.0"
"1530208869162";"-5.0"
"1530208869163";"-4.0"
"1530208869204";"-3.0"
"1530208869268";"-4.0"
"1530208869268";"-5.0"
"1530208869289";"-6.0"
"1530208869289";"-7.0"
"1530208869291";"-8.0"
"1530208869291";"-9.0"
"1530208869311";"-10.0"
"1530208869353";"-9.0"
"1530208869353";"-8.0"
"1530208869355";"-7.0"
"1530208869411";"-6.0"
"1530208869432";"-5.0"
"1530208869432";"-4.0"
"1530208869453";"-3.0"
"1530208869453";"-2.0"
"1530208869454";"-1.0"
"1530208869454";"0.0"
"1530208869454";"1.0"
"1530208869474";"2.0"
"1530208869475";"3.0"
"1530208869477";"4.0"
"1530208869477";"5.0"
"1530208869477";"6.0"
"1530208869478";"7.0"
"1530208869478";"8.0"
"1530208869478";"9.0"
"1530208869478";"10.0"
"1530208869478";"11.0"
"1530208869478";"12.0"
"1530208869478";"13.0"
"1530208869478";"14.0"
"1530208869478";"16.0"
"1530208869478";"17.0"
"1530208869478";"18.0"
"1530208869478";"19.0"
"1530208869479";"20.0"
"1530208869479";"21.0"
"1530208869479";"22.0"
"1530208869479";"23.0"
"1530208869500";"24.0"
"1530208869501";"25.0"
"1530208869501";"26.0"
"1530208869502";"27.0"
"1530208869502";"28.0"
"1530208869502";"29.0"
"1530208869544";"28.0"
"1530208869548";"27.0"
"1530208869569";"26.0"
"1530208869569";"25.0"
"1530208869572";"24.0"
"1530208869573";"23.0"
"1530208869573";"22.0"
"1530208869573";"21.0"
"1530208869573";"19.0"
"1530208869573";"18.0"
"1530208869594";"17.0"
"1530208869594";"16.0"
"1530208869595";"14.0"
"1530208869595";"13.0"
"1530208869595";"11.0"
"1530208869595";"10.0"
"1530208869595";"8.0"
"1530208869595";"7.0"
"1530208869595";"5.0"
"1530208869616";"4.0"
"1530208869616";"2.0"
"1530208869616";"1.0"
"1530208869616";"0.0"
"1530208869616";"-1.0"
"1530208869617";"-3.0"
"1530208869638";"-4.0"
"1530208869638";"-5.0"
"1530208869639";"-7.0"
"1530208869639";"-8.0"
"1530208869639";"-9.0"
"1530208869639";"-10.0"
"1530208869639";"-11.0"
"1530208869660";"-12.0"
"1530208869660";"-13.0"
"1530208869660";"-14.0"
"1530208869660";"-15.0"
"1530208869660";"-16.0"
"1530208869681";"-17.0"
"1530208869681";"-18.0"
"1530208869682";"-19.0"
"1530208869682";"-20.0"
"1530208869682";"-21.0"
"1530208869682";"-22.0"
"1530208869682";"-23.0"
"1530208869685";"-24.0"
"1530208869685";"-25.0"
"1530208869706";"-26.0"
"1530208869707";"-27.0"
"1530208869707";"-28.0"
"1530208869707";"-29.0"
"1530208869707";"-30.0"
"1530208869728";"-31.0"
"1530208869728";"-32.0"
"1530208869728";"-33.0"
"1530208869729";"-34.0"
"1530208869749";"-35.0"
"1530208869749";"-36.0"
"1530208869772";"-37.0"
"1530208869793";"-38.0"
"1530208869815";"-39.0"
"1530208869816";"-40.0"
"1530208869838";"-41.0"
"1530208869838";"-40.0"
"1530208869859";"-39.0"
"1530208869880";"-38.0"
"1530208869924";"-37.0"
"1530208869924";"-36.0"
"1530208869945";"-35.0"
"1530208869945";"-34.0"
"1530208869945";"-33.0"
"1530208869945";"-32.0"
"1530208869946";"-31.0"
"1530208869946";"-30.0"
"1530208869968";"-29.0"
"1530208869968";"-28.0"
"1530208869968";"-27.0"
"1530208869969";"-26.0"
"1530208869969";"-25.0"
"1530208869969";"-24.0"
"1530208869969";"-23.0"
"1530208869990";"-22.0"
"1530208869990";"-21.0"
"1530208869990";"-20.0"
"1530208869990";"-19.0"
"1530208870011";"-18.0"
"1530208870011";"-17.0"
"1530208870011";"-16.0"
"1530208870011";"-15.0"
"1530208870011";"-14.0"
"1530208870012";"-13.0"
"1530208870033";"-12.0"
"1530208870033";"-11.0"
"1530208870054";"-10.0"
"1530208870054";"-9.0"
"1530208870054";"-8.0"
"1530208870054";"-7.0"
"1530208870054";"-6.0"
"1530208870054";"-5.0"
"1530208870054";"-4.0"
"1530208870054";"-3.0"
"1530208870075";"-2.0"
"1530208870075";"-1.0"
"1530208870075";"0.0"
"1530208870075";"1.0"
"1530208870096";"2.0"
"1530208870099";"3.0"
"1530208870100";"4.0"
"1530208870100";"5.0"
"1530208870100";"6.0"
"1530208870121";"7.0"
"1530208870121";"8.0"
"1530208870122";"9.0"
"1530208870122";"10.0"
"1530208870122";"11.0"
"1530208870143";"12.0"
"1530208870165";"13.0"
"1530208870189";"12.0"
"1530208870210";"11.0"
"1530208870210";"10.0"
"1530208870232";"9.0"
"1530208870232";"8.0"
"1530208870233";"7.0"
"1530208870253";"6.0"
"1530208870274";"5.0"
"1530208870296";"6.0"
"1530208870297";"7.0"
"1530208870317";"8.0"
"1530208870317";"9.0"
"1530208870318";"10.0"
"1530208870318";"11.0"
"1530208870339";"12.0"
"1530208870339";"13.0"
"1530208870339";"14.0"
"1530208870339";"15.0"
"1530208870359";"16.0"
"1530208870360";"17.0"
"1530208870362";"18.0"
"1530208870362";"19.0"
"1530208870362";"20.0"
"1530208870383";"21.0"
"1530208870383";"22.0"
"1530208870412";"23.0"
"1530208870412";"24.0"
"1530208870433";"25.0"
"1530208870433";"26.0"
"1530208870454";"27.0"
"1530208870454";"28.0"
"1530208870475";"29.0"
"1530208870475";"30.0"
"1530208870476";"31.0"
"1530208870477";"32.0"
"1530208870477";"31.0"
"1530208870477";"30.0"
"1530208870498";"29.0"
"1530208870498";"28.0"
"1530208870498";"27.0"
"1530208870519";"26.0"
"1530208870520";"25.0"
"1530208870540";"24.0"
"1530208870541";"23.0"
"1530208870541";"22.0"
"1530208870541";"21.0"
"1530208870541";"20.0"
"1530208870561";"19.0"
"1530208870563";"18.0"
"1530208870563";"17.0"
"1530208870584";"16.0"
"1530208870584";"15.0"
"1530208870584";"14.0"
"1530208870605";"13.0"
"1530208870605";"12.0"
"1530208870605";"11.0"
"1530208870626";"10.0"
"1530208870628";"9.0"
"1530208870649";"8.0"
"1530208870670";"7.0"
"1530208870691";"6.0"
"1530208870712";"5.0"
"1530208870712";"4.0"
"1530208870733";"3.0"
"1530208870733";"2.0"
"1530208870757";"1.0"
"1530208870780";"0.0"
"1530208870801";"-1.0"
"1530208870822";"-2.0"
"1530208870844";"-3.0"
"1530208870928";"-4.0"
"1530208870971";"-5.0"
"1530208870992";"-6.0"
"1530208871036";"-5.0"
"1530208871036";"-4.0"
"1530208871057";"-3.0"
"1530208871057";"-2.0"
"1530208871121";"-3.0"
"1530208871163";"-2.0"
"1530208871165";"-1.0"
"1530208871186";"0.0"
"1530208871186";"1.0"
"1530208871186";"2.0"
"1530208871207";"3.0"
"1530208871207";"4.0"
"1530208871207";"5.0"
"1530208871207";"6.0"
"1530208871207";"7.0"
"1530208871208";"8.0"
"1530208871208";"9.0"
"1530208871208";"10.0"
"1530208871208";"11.0"
"1530208871231";"12.0"
"1530208871232";"13.0"
"1530208871232";"14.0"
"1530208871232";"15.0"
"1530208871232";"16.0"
"1530208871233";"17.0"
"1530208871253";"18.0"
"1530208871275";"19.0"
"1530208871275";"20.0"
"1530208871275";"21.0"
"1530208871275";"22.0"
"1530208871296";"23.0"
"1530208871298";"24.0"
"1530208871319";"23.0"
"1530208871340";"22.0"
"1530208871340";"21.0"
"1530208871361";"20.0"
"1530208871361";"19.0"
"1530208871363";"18.0"
"1530208871384";"17.0"
"1530208871384";"16.0"
"1530208871384";"15.0"
"1530208871384";"14.0"
"1530208871405";"13.0"
"1530208871406";"12.0"
"1530208871406";"11.0"
"1530208871406";"10.0"
"1530208871406";"9.0"
"1530208871427";"8.0"
"1530208871427";"7.0"
"1530208871429";"6.0"
"1530208871429";"5.0"
"1530208871490";"4.0"
"1530208871491";"3.0"
"1530208871491";"2.0"
"1530208871491";"1.0"
"1530208871491";"0.0"
"1530208871513";"-1.0"
"1530208871534";"-2.0"
"1530208871578";"-3.0"
"1530208871598";"-4.0"
"1530208871619";"-5.0"
"1530208871622";"-6.0"
"1530208871643";"-7.0"
"1530208871664";"-8.0"
"1530208871664";"-9.0"
"1530208871664";"-10.0"
"1530208871685";"-11.0"
"1530208871685";"-12.0"
"1530208871687";"-13.0"
"1530208871709";"-14.0"
"1530208871710";"-15.0"
"1530208871731";"-16.0"
"1530208871731";"-17.0"
"1530208871795";"-16.0"
"1530208871796";"-15.0"
"1530208871817";"-14.0"
"1530208871817";"-13.0"
"1530208871840";"-12.0"
"1530208871840";"-11.0"
"1530208871840";"-10.0"
"1530208871861";"-9.0"
"1530208871861";"-8.0"
"1530208871882";"-7.0"
"1530208871882";"-6.0"
"1530208871882";"-5.0"
"1530208871882";"-4.0"
"1530208871905";"-3.0"
"1530208871905";"-2.0"
"1530208871947";"-3.0"
"1530208871970";"-4.0"
"1530208871970";"-5.0"
"1530208871990";"-6.0"
"1530208872011";"-7.0"
"1530208872012";"-8.0"
"1530208872033";"-9.0"
"1530208872033";"-10.0"
"1530208872033";"-11.0"
"1530208872054";"-12.0"
"1530208872054";"-13.0"
"1530208872055";"-14.0"
"1530208872076";"-15.0"
"1530208872076";"-16.0"
"1530208872076";"-17.0"
"1530208872096";"-18.0"
"1530208872098";"-19.0"
"1530208872098";"-20.0"
"1530208872161";"-19.0"
"1530208872162";"-18.0"
"1530208872163";"-17.0"
"1530208872163";"-16.0"
"1530208872183";"-15.0"
"1530208872184";"-14.0"
"1530208872184";"-13.0"
"1530208872184";"-12.0"
"1530208872184";"-11.0"
"1530208872204";"-10.0"
"1530208872205";"-9.0"
"1530208872205";"-8.0"
"1530208872205";"-7.0"
"1530208872205";"-6.0"
"1530208872226";"-5.0"
"1530208872227";"-4.0"
"1530208872248";"-3.0"
"1530208872248";"-2.0"
"1530208872248";"-1.0"
"1530208872249";"0.0"
"1530208872249";"1.0"
"1530208872249";"2.0"
"1530208872270";"3.0"
"1530208872270";"4.0"
"1530208872270";"5.0"
"1530208872270";"6.0"
"1530208872291";"7.0"
"1530208872314";"6.0"
"1530208872336";"5.0"
"1530208872337";"4.0"
"1530208872337";"3.0"
"1530208872337";"2.0"
"1530208872358";"1.0"
"1530208872358";"0.0"
"1530208872379";"-1.0"
"1530208872414";"-2.0"
"1530208872415";"-3.0"
"1530208872435";"-4.0"
"1530208872436";"-5.0"
"1530208872436";"-6.0"
"1530208872436";"-7.0"
"1530208872437";"-8.0"
"1530208872458";"-9.0"
"1530208872458";"-10.0"
"1530208872458";"-11.0"
"1530208872481";"-12.0"
"1530208872481";"-13.0"
"1530208872524";"-12.0"
"1530208872524";"-11.0"
"1530208872545";"-10.0"
"1530208872545";"-9.0"
"1530208872567";"-8.0"
"1530208872567";"-7.0"
"1530208872588";"-6.0"
"1530208872588";"-5.0"
"1530208872609";"-4.0"
"1530208872609";"-3.0"
"1530208872609";"-2.0"
"1530208872631";"-1.0"
"1530208872631";"0.0"
"1530208872652";"1.0"
"1530208872653";"2.0"
"1530208872653";"3.0"
"1530208872653";"4.0"
"1530208872673";"5.0"
"1530208872674";"6.0"
"1530208872674";"7.0"
"1530208872695";"8.0"
"1530208872695";"9.0"
"1530208872695";"10.0"
"1530208872695";"11.0"
"1530208872716";"12.0"
"1530208872740";"11.0"
"1530208872761";"10.0"
"1530208872761";"9.0"
"1530208872782";"8.0"
"1530208872803";"7.0"
"1530208872846";"8.0"
"1530208872867";"9.0"
"1530208872890";"10.0"
"1530208872911";"11.0"
"1530208872953";"10.0"
"1530208872975";"9.0"
"1530208873017";"8.0"
"1530208873017";"7.0"
"1530208873049";"8.0"
"1530208873070";"9.0"
"1530208873070";"10.0"
"1530208873091";"11.0"
"1530208873091";"12.0"
"1530208873091";"13.0"
"1530208873113";"14.0"
"1530208873114";"15.0"
"1530208873114";"16.0"
"1530208873114";"17.0"
"1530208873134";"18.0"
"1530208873180";"17.0"
"1530208873201";"16.0"
"1530208873201";"15.0"
"1530208873222";"14.0"
"1530208873245";"13.0"
"1530208873245";"12.0"
"1530208873245";"11.0"
"1530208873266";"10.0"
"1530208873266";"9.0"
"1530208873287";"8.0"
"1530208873309";"7.0"
"1530208873309";"6.0"
"1530208873310";"5.0"
"1530208873310";"4.0"
"1530208873331";"3.0"
"1530208873331";"2.0"
"1530208873352";"1.0"
"1530208873374";"0.0"
"1530208873428";"-1.0"
"1530208873429";"-2.0"
"1530208873450";"-3.0"
"1530208873450";"-4.0"
"1530208873451";"-5.0"
"1530208873451";"-6.0"
"1530208873452";"-7.0"
"1530208873452";"-8.0"
"1530208873473";"-9.0"
"1530208873473";"-10.0"
"1530208873474";"-11.0"
"1530208873474";"-12.0"
"1530208873474";"-13.0"
"1530208873474";"-14.0"
"1530208873495";"-15.0"
"1530208873496";"-14.0"
"1530208873537";"-13.0"
"1530208873537";"-12.0"
"1530208873537";"-11.0"
"1530208873537";"-10.0"
"1530208873558";"-9.0"
"1530208873558";"-8.0"
"1530208873560";"-7.0"
"1530208873581";"-6.0"
"1530208873581";"-5.0"
"1530208873581";"-4.0"
"1530208873582";"-3.0"
"1530208873623";"-4.0"
"1530208873644";"-5.0"
"1530208873666";"-6.0"
"1530208873666";"-7.0"
"1530208873729";"-6.0"
"1530208873750";"-5.0"
"1530208873750";"-4.0"
"1530208873751";"-3.0"
"1530208873772";"-2.0"
"1530208873772";"-1.0"
"1530208873793";"0.0"
"1530208873835";"-1.0"
"1530208873856";"-2.0"
"1530208873856";"-3.0"
"1530208873877";"-4.0"
"1530208873878";"-5.0"
"1530208873899";"-6.0"
"1530208873900";"-7.0"
"1530208873921";"-8.0"
"1530208873921";"-9.0"
"1530208873921";"-10.0"
"1530208873944";"-11.0"
"1530208873944";"-12.0"
"1530208873944";"-13.0"
"1530208873965";"-14.0"
"1530208874007";"-13.0"
"1530208874029";"-12.0"
"1530208874050";"-11.0"
"1530208874071";"-10.0"
"1530208874092";"-9.0"
"1530208874094";"-8.0"
"1530208874115";"-7.0"
"1530208874135";"-6.0"
"1530208874157";"-5.0"
"1530208874180";"-4.0"
"1530208874201";"-3.0"
"1530208874221";"-2.0"
"1530208874222";"-1.0"
"1530208874223";"0.0"
"1530208874244";"1.0"
"1530208874244";"2.0"
"1530208874265";"3.0"
"1530208874265";"4.0"
"1530208874266";"5.0"
"1530208874287";"6.0"
"1530208874287";"7.0"
"1530208874287";"8.0"
"1530208874288";"9.0"
"1530208874309";"10.0"
"1530208874310";"11.0"
"1530208874310";"12.0"
"1530208874310";"13.0"
"1530208874310";"14.0"
"1530208874331";"15.0"
"1530208874331";"16.0"
"1530208874401";"17.0"
"1530208874442";"18.0"
"1530208874445";"17.0"
"1530208874486";"16.0"
"1530208874487";"15.0"
"1530208874487";"14.0"
"1530208874508";"13.0"
"1530208874508";"12.0"
"1530208874508";"11.0"
"1530208874529";"10.0"
"1530208874529";"9.0"
"1530208874550";"8.0"
"1530208874550";"7.0"
"1530208874550";"6.0"
"1530208874572";"5.0"
"1530208874593";"4.0"
"1530208874593";"3.0"
"1530208874638";"2.0"
"1530208874640";"1.0"
"1530208874660";"0.0"
"1530208874681";"-1.0"
"1530208874682";"-2.0"
"1530208874682";"-3.0"
"1530208874703";"-4.0"
"1530208874725";"-5.0"
"1530208874726";"-6.0"
"1530208874747";"-7.0"
"1530208874747";"-8.0"
"1530208874768";"-9.0"
"1530208874769";"-10.0"
"1530208874790";"-11.0"
"1530208874811";"-12.0"
"1530208874854";"-11.0"
"1530208874920";"-10.0"
"1530208874941";"-9.0"
"1530208874941";"-8.0"
"1530208874962";"-7.0"
"1530208874983";"-6.0"
"1530208874983";"-5.0"
"1530208875004";"-4.0"
"1530208875025";"-3.0"
"1530208875025";"-2.0"
"1530208875025";"-1.0"
"1530208875046";"0.0"
"1530208875046";"1.0"
"1530208875067";"2.0"
"1530208875067";"3.0"
"1530208875067";"4.0"
"1530208875068";"5.0"
"1530208875088";"6.0"
"1530208875089";"7.0"
"1530208875089";"8.0"
"1530208875089";"9.0"
"1530208875092";"10.0"
"1530208875114";"11.0"
"1530208875114";"12.0"
"1530208875114";"13.0"
"1530208875114";"14.0"
"1530208875115";"15.0"
"1530208875115";"16.0"
"1530208875115";"17.0"
"1530208875136";"18.0"
"1530208875136";"19.0"
"1530208875136";"20.0"
"1530208875136";"21.0"
"1530208875157";"22.0"
"1530208875179";"21.0"
"1530208875180";"20.0"
"1530208875200";"19.0"
"1530208875200";"18.0"
"1530208875221";"17.0"
"1530208875221";"16.0"
"1530208875221";"15.0"
"1530208875222";"14.0"
"1530208875222";"13.0"
"1530208875242";"12.0"
"1530208875243";"11.0"
"1530208875243";"10.0"
"1530208875243";"8.0"
"1530208875243";"7.0"
"1530208875243";"6.0"
"1530208875243";"5.0"
"1530208875244";"4.0"
"1530208875244";"3.0"
"1530208875264";"2.0"
"1530208875265";"1.0"
"1530208875265";"0.0"
"1530208875265";"-1.0"
"1530208875290";"-2.0"
"1530208875290";"-3.0"
"1530208875290";"-4.0"
"1530208875290";"-5.0"
"1530208875311";"-6.0"
"1530208875332";"-7.0"
"1530208875353";"-8.0"
"1530208875374";"-9.0"
"1530208875465";"-10.0"
"1530208875467";"-9.0"
"1530208875467";"-8.0"
"1530208875468";"-7.0"
"1530208875468";"-6.0"
"1530208875471";"-5.0"
"1530208875471";"-4.0"
"1530208875472";"-3.0"
"1530208875472";"-2.0"
"1530208875472";"-1.0"
"1530208875472";"0.0"
"1530208875493";"1.0"
"1530208875493";"2.0"
"1530208875494";"3.0"
"1530208875494";"4.0"
"1530208875494";"5.0"
"1530208875494";"6.0"
"1530208875494";"7.0"
"1530208875494";"8.0"
"1530208875495";"9.0"
"1530208875495";"10.0"
"1530208875495";"11.0"
"1530208875516";"12.0"
"1530208875517";"13.0"
"1530208875517";"14.0"
"1530208875517";"15.0"
"1530208875538";"16.0"
"1530208875538";"17.0"
"1530208875539";"18.0"
"1530208875559";"19.0"
"1530208875560";"20.0"
"1530208875601";"19.0"
"1530208875622";"18.0"
"1530208875623";"17.0"
"1530208875643";"16.0"
"1530208875644";"15.0"
"1530208875665";"14.0"
"1530208875665";"13.0"
"1530208875665";"12.0"
"1530208875665";"11.0"
"1530208875665";"10.0"
"1530208875665";"9.0"
"1530208875686";"8.0"
"1530208875687";"7.0"
"1530208875687";"6.0"
"1530208875687";"5.0"
"1530208875708";"4.0"
"1530208875708";"3.0"
"1530208875708";"2.0"
"1530208875708";"1.0"
"1530208875708";"0.0"
"1530208875729";"-1.0"
"1530208875730";"-2.0"
"1530208875730";"-3.0"
"1530208875730";"-4.0"
"1530208875751";"-5.0"
"1530208875751";"-6.0"
"1530208875751";"-7.0"
"1530208875751";"-8.0"
"1530208875774";"-9.0"
"1530208875774";"-10.0"
"1530208875774";"-11.0"
"1530208875795";"-12.0"
"1530208875795";"-13.0"
"1530208875795";"-14.0"
"1530208875795";"-15.0"
"1530208875816";"-16.0"
"1530208875816";"-17.0"
"1530208875858";"-16.0"
"1530208875880";"-15.0"
"1530208875901";"-14.0"
"1530208875902";"-13.0"
"1530208875923";"-12.0"
"1530208875923";"-11.0"
"1530208875944";"-10.0"
"1530208875944";"-9.0"
"1530208875965";"-8.0"
"1530208875965";"-7.0"
"1530208875965";"-6.0"
"1530208875965";"-5.0"
"1530208875986";"-4.0"
"1530208875986";"-3.0"
"1530208876028";"-2.0"
"1530208876028";"-1.0"
"1530208876031";"0.0"
"1530208876052";"1.0"
"1530208876073";"2.0"
"1530208876074";"3.0"
"1530208876095";"4.0"
"1530208876095";"5.0"
"1530208876116";"6.0"
"1530208876116";"7.0"
"1530208876137";"8.0"
"1530208876158";"7.0"
"1530208876180";"6.0"
"1530208876180";"5.0"
"1530208876201";"4.0"
"1530208876201";"3.0"
"1530208876201";"2.0"
"1530208876201";"1.0"
"1530208876201";"0.0"
"1530208876223";"-1.0"
"1530208876223";"-2.0"
"1530208876224";"-3.0"
"1530208876226";"-4.0"
"1530208876226";"-5.0"
"1530208876247";"-6.0"
"1530208876247";"-7.0"
"1530208876247";"-8.0"
"1530208876248";"-9.0"
"1530208876248";"-10.0"
"1530208876248";"-11.0"
"1530208876269";"-12.0"
"1530208876269";"-13.0"
"1530208876269";"-14.0"
"1530208876269";"-15.0"
"1530208876290";"-16.0"
"1530208876291";"-17.0"
"1530208876294";"-18.0"
"1530208876315";"-19.0"
"1530208876337";"-20.0"
"1530208876358";"-21.0"
"1530208876477";"-20.0"
"1530208876480";"-19.0"
"1530208876480";"-18.0"
"1530208876480";"-17.0"
"1530208876480";"-16.0"
"1530208876480";"-15.0"
"1530208876480";"-14.0"
"1530208876480";"-13.0"
"1530208876501";"-12.0"
"1530208876501";"-11.0"
"1530208876522";"-10.0"
"1530208876522";"-9.0"
"1530208876522";"-8.0"
"1530208876523";"-7.0"
"1530208876523";"-6.0"
"1530208876543";"-5.0"
"1530208876543";"-4.0"
"1530208876564";"-3.0"
"1530208876566";"-2.0"
"1530208876587";"-1.0"
"1530208876608";"0.0"
"1530208876630";"1.0"
"1530208876630";"2.0"
"1530208876651";"3.0"
"1530208876651";"4.0"
"1530208876673";"5.0"
"1530208876673";"6.0"
"1530208876694";"7.0"
"1530208876695";"8.0"
"1530208876718";"9.0"
"1530208876719";"10.0"
"1530208876782";"9.0"
"1530208876823";"8.0"
"1530208876824";"7.0"
"1530208876846";"6.0"
"1530208876887";"5.0"
"1530208876909";"4.0"
"1530208876950";"3.0"
"1530208876951";"2.0"
"1530208876971";"1.0"
"1530208876992";"0.0"
"1530208877013";"-1.0"
"1530208877013";"-2.0"
"1530208877034";"-3.0"
"1530208877037";"-4.0"
"1530208877164";"-5.0"
"1530208877185";"-6.0"
"1530208877206";"-7.0"
"1530208877312";"-6.0"
"1530208877411";"-5.0"
"1530208877463";"-4.0"
"1530208877486";"-5.0"
"1530208877486";"-4.0"
"1530208877592";"-3.0"
"1530208877634";"-2.0"
"1530208877783";"-1.0"
"1530208877804";"0.0"
"1530208877804";"1.0"
"1530208877805";"2.0"
"1530208877805";"3.0"
"1530208877826";"4.0"
"1530208877828";"5.0"
"1530208877828";"6.0"
"1530208877848";"7.0"
"1530208877849";"8.0"
"1530208877849";"9.0"
"1530208877849";"10.0"
"1530208877870";"11.0"
"1530208877891";"12.0"
"1530208877954";"11.0"
"1530208877976";"10.0"
"1530208877977";"9.0"
"1530208877997";"8.0"
"1530208878022";"7.0"
"1530208878042";"6.0"
"1530208878043";"5.0"
"1530208878043";"4.0"
"1530208878064";"3.0"
"1530208878064";"2.0"
"1530208878085";"1.0"
"1530208878106";"0.0"
"1530208878127";"-1.0"
"1530208878148";"-2.0"
"1530208878173";"-3.0"
"1530208878215";"-4.0"
"1530208878281";"-3.0"
"1530208878482";"-4.0"
"1530208878590";"-3.0"
"1530208878590";"-2.0"
"1530208878611";"-1.0"
"1530208878611";"0.0"
"1530208878655";"1.0"
"1530208878722";"0.0"
"1530208878767";"-1.0"
"1530208878788";"-2.0"
"1530208878852";"-1.0"
"1530208878852";"0.0"
"1530208878873";"1.0"
"1530208878873";"2.0"
"1530208878894";"3.0"
"1530208878894";"4.0"
"1530208878896";"5.0"
"1530208878896";"6.0"
"1530208878917";"7.0"
"1530208878917";"8.0"
"1530208878938";"9.0"
"1530208878938";"10.0"
"1530208878961";"11.0"
"1530208879023";"10.0"
"1530208879046";"9.0"
"1530208879067";"8.0"
"1530208879088";"7.0"
"1530208879111";"6.0"
"1530208879111";"5.0"
"1530208879132";"4.0"
"1530208879132";"3.0"
"1530208879153";"2.0"
"1530208879175";"1.0"
"1530208879196";"0.0"
"1530208879263";"-1.0"
"1530208879284";"-2.0"
"1530208879327";"-3.0"
"1530208879442";"-2.0"
"1530208879463";"-3.0"
"1530208879485";"-2.0"
"1530208879656";"-3.0"
"1530208879743";"-4.0"
"1530208879806";"-3.0"
"1530208879872";"-2.0"
"1530208879894";"-1.0"
"1530208879915";"0.0"
"1530208879915";"1.0"
"1530208879936";"2.0"
"1530208879936";"3.0"
"1530208879936";"4.0"
"1530208879957";"5.0"
"1530208879958";"6.0"
"1530208879958";"7.0"
"1530208879979";"8.0"
"1530208879979";"9.0"
"1530208879979";"10.0"
"1530208879979";"11.0"
"1530208880000";"12.0"
"1530208880000";"13.0"
"1530208880022";"14.0"
"1530208880085";"13.0"
"1530208880106";"12.0"
"1530208880127";"11.0"
"1530208880127";"10.0"
"1530208880148";"9.0"
"1530208880148";"8.0"
"1530208880170";"7.0"
"1530208880172";"6.0"
"1530208880193";"5.0"
"1530208880193";"4.0"
"1530208880193";"3.0"
"1530208880214";"2.0"
"1530208880214";"1.0"
"1530208880235";"0.0"
"1530208880236";"-1.0"
"1530208880257";"-2.0"
"1530208880278";"-3.0"
"1530208880362";"-4.0"
"1530208880405";"-3.0"
"1530208880450";"-2.0"
"1530208880816";"-3.0"
"1530208880816";"-2.0"
"1530208880922";"-1.0"
"1530208880923";"0.0"
"1530208880943";"1.0"
"1530208880944";"2.0"
"1530208880965";"3.0"
"1530208880966";"4.0"
"1530208880967";"5.0"
"1530208880967";"6.0"
"1530208880989";"7.0"
"1530208880989";"8.0"
"1530208880989";"9.0"
"1530208880989";"10.0"
"1530208881010";"11.0"
"1530208881010";"12.0"
"1530208881032";"13.0"
"1530208881074";"12.0"
"1530208881096";"11.0"
"1530208881117";"10.0"
"1530208881138";"9.0"
"1530208881159";"8.0"
"1530208881160";"7.0"
"1530208881182";"6.0"
"1530208881183";"5.0"
"1530208881183";"4.0"
"1530208881204";"3.0"
"1530208881204";"2.0"
"1530208881225";"1.0"
"1530208881226";"0.0"
"1530208881267";"-1.0"
"1530208881267";"-2.0"
"1530208881311";"-3.0"
"1530208881353";"-4.0"
"1530208881481";"-5.0"
"1530208881585";"-4.0"
"1530208881671";"-3.0"
"1530208881715";"-2.0"
"1530208881757";"-1.0"
"1530208881778";"0.0"
"1530208881800";"1.0"
"1530208881821";"2.0"
"1530208881821";"3.0"
"1530208881821";"4.0"
"1530208881842";"5.0"
"1530208881843";"6.0"
"1530208881843";"7.0"
"1530208881843";"8.0"
"1530208881843";"9.0"
"1530208881865";"10.0"
"1530208881865";"11.0"
"1530208881866";"12.0"
"1530208881886";"13.0"
"1530208881887";"14.0"
"1530208881909";"15.0"
"1530208881909";"16.0"
"1530208881930";"15.0"
"1530208881972";"14.0"
"1530208881973";"13.0"
"1530208881994";"12.0"
"1530208881994";"11.0"
"1530208882015";"10.0"
"1530208882015";"9.0"
"1530208882038";"8.0"
"1530208882038";"7.0"
"1530208882038";"6.0"
"1530208882059";"5.0"
"1530208882059";"4.0"
"1530208882059";"3.0"
"1530208882080";"2.0"
"1530208882080";"1.0"
"1530208882101";"0.0"
"1530208882103";"-1.0"
"1530208882124";"-2.0"
"1530208882275";"-1.0"
"1530208882339";"-2.0"
"1530208882360";"-1.0"
"1530208882361";"-2.0"
"1530208882382";"-1.0"
"1530208882384";"-2.0"
"1530208882446";"-3.0"
"1530208882490";"-4.0"
"1530208882619";"-3.0"
"1530208882684";"-4.0"
"1530208882728";"-5.0"
"1530208882728";"-4.0"
"1530208882749";"-3.0"
"1530208882749";"-2.0"
"1530208882771";"-1.0"
"1530208882771";"0.0"
"1530208882772";"1.0"
"1530208882792";"2.0"
"1530208882793";"3.0"
"1530208882793";"4.0"
"1530208882793";"5.0"
"1530208882793";"6.0"
"1530208882793";"7.0"
"1530208882818";"8.0"
"1530208882819";"9.0"
"1530208882819";"10.0"
"1530208882819";"11.0"
"1530208882819";"12.0"
"1530208882840";"13.0"
"1530208882840";"14.0"
"1530208882840";"15.0"
"1530208882841";"16.0"
"1530208882925";"17.0"
"1530208882990";"16.0"
"1530208882990";"15.0"
"1530208882990";"14.0"
"1530208883011";"13.0"
"1530208883011";"12.0"
"1530208883011";"11.0"
"1530208883011";"10.0"
"1530208883012";"9.0"
"1530208883012";"8.0"
"1530208883032";"7.0"
"1530208883035";"6.0"
"1530208883036";"5.0"
"1530208883057";"4.0"
"1530208883142";"3.0"
"1530208883163";"2.0"
"1530208883165";"1.0"
"1530208883186";"0.0"
"1530208883207";"-1.0"
"1530208883207";"-2.0"
"1530208883228";"-3.0"
"1530208883231";"-4.0"
"1530208883252";"-5.0"
"1530208883252";"-6.0"
"1530208883273";"-5.0"
"1530208883294";"-4.0"
"1530208883294";"-3.0"
"1530208883294";"-2.0"
"1530208883315";"-1.0"
"1530208883315";"0.0"
"1530208883356";"1.0"
"1530208883380";"0.0"
"1530208883401";"-1.0"
"1530208883402";"-2.0"
"1530208883402";"-3.0"
"1530208883402";"-4.0"
"1530208883402";"-5.0"
"1530208883426";"-6.0"
"1530208883427";"-7.0"
"1530208883427";"-8.0"
"1530208883448";"-9.0"
"1530208883449";"-10.0"
"1530208883490";"-9.0"
"1530208883490";"-8.0"
"1530208883491";"-7.0"
"1530208883492";"-6.0"
"1530208883513";"-5.0"
"1530208883513";"-4.0"
"1530208883513";"-3.0"
"1530208883513";"-2.0"
"1530208883514";"0.0"
"1530208883514";"1.0"
"1530208883535";"2.0"
"1530208883536";"3.0"
"1530208883536";"4.0"
"1530208883536";"5.0"
"1530208883557";"6.0"
"1530208883557";"7.0"
"1530208883557";"8.0"
"1530208883557";"9.0"
"1530208883558";"10.0"
"1530208883559";"11.0"
"1530208883580";"12.0"
"1530208883601";"13.0"
"1530208883622";"12.0"
"1530208883622";"11.0"
"1530208883622";"10.0"
"1530208883622";"9.0"
"1530208883623";"8.0"
"1530208883624";"7.0"
"1530208883624";"6.0"
"1530208883645";"5.0"
"1530208883645";"4.0"
"1530208883645";"3.0"
"1530208883645";"2.0"
"1530208883666";"1.0"
"1530208883666";"0.0"
"1530208883666";"-1.0"
"1530208883687";"-2.0"
"1530208883687";"-3.0"
"1530208883731";"-2.0"
"1530208883731";"-1.0"
"1530208883731";"0.0"
"1530208883752";"1.0"
"1530208883752";"2.0"
"1530208883753";"3.0"
"1530208883774";"4.0"
"1530208883775";"5.0"
"1530208883796";"6.0"
"1530208883817";"7.0"
"1530208883817";"8.0"
"1530208883861";"7.0"
"1530208883932";"6.0"
"1530208883932";"5.0"
"1530208883953";"4.0"
"1530208883974";"3.0"
"1530208883974";"2.0"
"1530208883974";"1.0"
"1530208883975";"0.0"
"1530208884039";"1.0"
"1530208884039";"2.0"
"1530208884039";"3.0"
"1530208884039";"4.0"
"1530208884039";"5.0"
"1530208884060";"6.0"
"1530208884060";"7.0"
"1530208884081";"6.0"
"1530208884082";"5.0"
"1530208884082";"4.0"
"1530208884102";"3.0"
"1530208884103";"2.0"
"1530208884103";"1.0"
"1530208884124";"2.0"
"1530208884124";"3.0"
"1530208884145";"4.0"
"1530208884145";"5.0"
"1530208884145";"7.0"
"1530208884145";"8.0"
"1530208884145";"9.0"
"1530208884167";"11.0"
"1530208884167";"12.0"
"1530208884167";"14.0"
"1530208884167";"15.0"
"1530208884168";"16.0"
"1530208884209";"17.0"
"1530208884272";"16.0"
"1530208884272";"15.0"
"1530208884272";"14.0"
"1530208884272";"13.0"
"1530208884293";"11.0"
"1530208884293";"10.0"
"1530208884293";"9.0"
"1530208884293";"8.0"
"1530208884293";"6.0"
"1530208884293";"5.0"
"1530208884294";"4.0"
"1530208884294";"3.0"
"1530208884294";"2.0"
"1530208884315";"1.0"
"1530208884315";"0.0"
"1530208884315";"-1.0"
"1530208884315";"-2.0"
"1530208884315";"-3.0"
"1530208884336";"-4.0"
"1530208884336";"-5.0"
"1530208884336";"-6.0"
"1530208884337";"-7.0"
"1530208884337";"-8.0"
"1530208884337";"-9.0"
"1530208884358";"-10.0"
"1530208884358";"-11.0"
"1530208884358";"-12.0"
"1530208884358";"-13.0"
"1530208884379";"-14.0"
"1530208884379";"-13.0"
"1530208884400";"-12.0"
"1530208884400";"-11.0"
"1530208884401";"-9.0"
"1530208884401";"-8.0"
"1530208884421";"-7.0"
"1530208884422";"-5.0"
"1530208884422";"-4.0"
"1530208884422";"-2.0"
"1530208884422";"0.0"
"1530208884422";"2.0"
"1530208884422";"4.0"
"1530208884443";"5.0"
"1530208884444";"7.0"
"1530208884444";"8.0"
"1530208884444";"10.0"
"1530208884444";"11.0"
"1530208884444";"12.0"
"1530208884444";"13.0"
"1530208884465";"14.0"
"1530208884465";"15.0"
"1530208884465";"16.0"
"1530208884466";"17.0"
"1530208884486";"18.0"
"1530208884509";"17.0"
"1530208884530";"16.0"
"1530208884552";"15.0"
"1530208884573";"14.0"
"1530208884594";"13.0"
"1530208884594";"12.0"
"1530208884594";"11.0"
"1530208884615";"10.0"
"1530208884615";"9.0"
"1530208884615";"8.0"
"1530208884615";"7.0"
"1530208884615";"6.0"
"1530208884636";"5.0"
"1530208884636";"4.0"
"1530208884636";"3.0"
"1530208884637";"2.0"
"1530208884637";"1.0"
"1530208884637";"0.0"
"1530208884658";"-1.0"
"1530208884659";"-2.0"
"1530208884660";"-3.0"
"1530208884660";"-4.0"
"1530208884681";"-5.0"
"1530208884681";"-6.0"
"1530208884681";"-7.0"
"1530208884681";"-8.0"
"1530208884681";"-9.0"
"1530208884707";"-10.0"
"1530208884708";"-11.0"
"1530208884729";"-12.0"
"1530208884729";"-13.0"
"1530208884729";"-14.0"
"1530208884750";"-15.0"
"1530208884750";"-16.0"
"1530208884772";"-17.0"
"1530208884793";"-18.0"
"1530208884793";"-19.0"
"1530208884814";"-20.0"
"1530208884814";"-21.0"
"1530208884835";"-22.0"
"1530208884837";"-23.0"
"1530208884837";"-24.0"
"1530208884858";"-25.0"
"1530208884858";"-26.0"
"1530208884858";"-27.0"
"1530208884879";"-28.0"
"1530208884879";"-29.0"
"1530208884879";"-30.0"
"1530208884900";"-31.0"
"1530208884902";"-32.0"
"1530208884923";"-31.0"
"1530208884945";"-30.0"
"1530208884965";"-29.0"
"1530208884967";"-28.0"
"1530208884988";"-27.0"
"1530208884988";"-26.0"
"1530208884988";"-25.0"
"1530208884988";"-24.0"
"1530208884988";"-23.0"
"1530208885010";"-22.0"
"1530208885010";"-21.0"
"1530208885010";"-20.0"
"1530208885010";"-19.0"
"1530208885010";"-18.0"
"1530208885010";"-17.0"
"1530208885010";"-16.0"
"1530208885011";"-14.0"
"1530208885011";"-13.0"
"1530208885011";"-12.0"
"1530208885031";"-10.0"
"1530208885034";"-9.0"
"1530208885034";"-8.0"
"1530208885055";"-6.0"
"1530208885056";"-5.0"
"1530208885056";"-4.0"
"1530208885056";"-2.0"
"1530208885056";"-1.0"
"1530208885056";"0.0"
"1530208885056";"1.0"
"1530208885056";"2.0"
"1530208885057";"4.0"
"1530208885078";"5.0"
"1530208885078";"6.0"
"1530208885078";"7.0"
"1530208885078";"8.0"
"1530208885079";"9.0"
"1530208885079";"10.0"
"1530208885100";"11.0"
"1530208885100";"12.0"
"1530208885100";"13.0"
"1530208885101";"14.0"
"1530208885101";"15.0"
"1530208885101";"16.0"
"1530208885101";"17.0"
"1530208885122";"18.0"
"1530208885122";"19.0"
"1530208885122";"20.0"
"1530208885123";"21.0"
"1530208885166";"22.0"
"1530208885187";"21.0"
"1530208885187";"20.0"
"1530208885207";"19.0"
"1530208885208";"18.0"
"1530208885228";"17.0"
"1530208885229";"16.0"
"1530208885230";"15.0"
"1530208885231";"14.0"
"1530208885251";"13.0"
"1530208885252";"12.0"
"1530208885252";"11.0"
"1530208885252";"10.0"
"1530208885273";"9.0"
"1530208885273";"8.0"
"1530208885274";"7.0"
"1530208885294";"6.0"
"1530208885295";"5.0"
"1530208885295";"4.0"
"1530208885296";"3.0"
"1530208885317";"2.0"
"1530208885317";"1.0"
"1530208885317";"0.0"
"1530208885338";"-1.0"
"1530208885360";"-2.0"
"1530208885382";"-3.0"
"1530208885403";"-2.0"
"1530208885424";"-1.0"
"1530208885424";"0.0"
"1530208885448";"1.0"
"1530208885449";"2.0"
"1530208885449";"3.0"
"1530208885449";"4.0"
"1530208885449";"5.0"
"1530208885450";"6.0"
"1530208885471";"7.0"
"1530208885471";"8.0"
"1530208885471";"9.0"
"1530208885471";"10.0"
"1530208885471";"11.0"
"1530208885492";"12.0"
"1530208885493";"13.0"
"1530208885495";"14.0"
"1530208885516";"15.0"
"1530208885516";"16.0"
"1530208885516";"17.0"
"1530208885537";"18.0"
"1530208885559";"19.0"
"1530208885580";"20.0"
"1530208885622";"19.0"
"1530208885644";"18.0"
"1530208885645";"17.0"
"1530208885645";"16.0"
"1530208885645";"15.0"
"1530208885666";"14.0"
"1530208885666";"13.0"
"1530208885666";"12.0"
"1530208885687";"11.0"
"1530208885687";"10.0"
"1530208885687";"9.0"
"1530208885687";"8.0"
"1530208885688";"7.0"
"1530208885709";"6.0"
"1530208885710";"5.0"
"1530208885710";"4.0"
"1530208885731";"3.0"
"1530208885731";"2.0"
"1530208885731";"1.0"
"1530208885731";"0.0"
"1530208885752";"-1.0"
"1530208885752";"-2.0"
"1530208885752";"-3.0"
"1530208885775";"-4.0"
"1530208885796";"-5.0"
"1530208885859";"-4.0"
"1530208885860";"-3.0"
"1530208885881";"-2.0"
"1530208885905";"-1.0"
"1530208885947";"0.0"
"1530208886011";"-1.0"
"1530208886056";"0.0"
"1530208886182";"1.0"
"1530208886183";"0.0"
"1530208886246";"-1.0"
"1530208886246";"-2.0"
"1530208886267";"-3.0"
"1530208886288";"-4.0"
"1530208886332";"-3.0"
"1530208886332";"-2.0"
"1530208886332";"-1.0"
"1530208886353";"0.0"
"1530208886381";"1.0"
"1530208886381";"2.0"
"1530208886460";"3.0"
"1530208886460";"4.0"
"1530208886460";"5.0"
"1530208886460";"6.0"
"1530208886461";"7.0"
"1530208886483";"8.0"
"1530208886483";"9.0"
"1530208886506";"10.0"
"1530208886530";"11.0"
"1530208886551";"12.0"
"1530208886573";"13.0"
"1530208886594";"14.0"
"1530208886594";"15.0"
"1530208886615";"16.0"
"1530208886636";"17.0"
"1530208886638";"18.0"
"1530208886659";"17.0"
"1530208886659";"16.0"
"1530208886680";"15.0"
"1530208886680";"14.0"
"1530208886680";"12.0"
"1530208886681";"10.0"
"1530208886681";"8.0"
"1530208886681";"6.0"
"1530208886681";"4.0"
"1530208886681";"2.0"
"1530208886681";"0.0"
"1530208886681";"-3.0"
"1530208886702";"-6.0"
"1530208886703";"-10.0"
"1530208886703";"-13.0"
"1530208886703";"-17.0"
"1530208886703";"-21.0"
"1530208886724";"-24.0"
"1530208886724";"-28.0"
"1530208886724";"-32.0"
"1530208886724";"-36.0"
"1530208886745";"-40.0"
"1530208886746";"-44.0"
"1530208886746";"-48.0"
"1530208886746";"-52.0"
"1530208886746";"-57.0"
"1530208886746";"-61.0"
"1530208886746";"-65.0"
"1530208886746";"-69.0"
"1530208886746";"-73.0"
"1530208886767";"-77.0"
"1530208886767";"-81.0"
"1530208886767";"-85.0"
"1530208886768";"-89.0"
"1530208886768";"-92.0"
"1530208886768";"-96.0"
"1530208886789";"-100.0"
"1530208886789";"-104.0"
"1530208886789";"-107.0"
"1530208886789";"-110.0"
"1530208886789";"-114.0"
"1530208886789";"-117.0"
"1530208886810";"-119.0"
"1530208886810";"-122.0"
"1530208886811";"-125.0"
"1530208886811";"-129.0"
"1530208886811";"-132.0"
"1530208886811";"-135.0"
"1530208886831";"-137.0"
"1530208886832";"-140.0"
"1530208886832";"-143.0"
"1530208886832";"-145.0"
"1530208886832";"-148.0"
"1530208886834";"-150.0"
"1530208886855";"-152.0"
"1530208886855";"-155.0"
"1530208886856";"-157.0"
"1530208886856";"-160.0"
"1530208886856";"-162.0"
"1530208886856";"-165.0"
"1530208886856";"-167.0"
"1530208886856";"-169.0"
"1530208886856";"-171.0"
"1530208886856";"-173.0"
"1530208886877";"-175.0"
"1530208886877";"-177.0"
"1530208886877";"-178.0"
"1530208886877";"-180.0"
"1530208886877";"-182.0"
"1530208886877";"-184.0"
"1530208886898";"-186.0"
"1530208886898";"-188.0"
"1530208886898";"-189.0"
"1530208886900";"-191.0"
"1530208886901";"-192.0"
"1530208886901";"-193.0"
"1530208886923";"-194.0"
"1530208886944";"-193.0"
"1530208886944";"-192.0"
"1530208886944";"-191.0"
"1530208886944";"-190.0"
"1530208886944";"-188.0"
"1530208886944";"-187.0"
"1530208886944";"-185.0"
"1530208886945";"-183.0"
"1530208886945";"-180.0"
"1530208886965";"-178.0"
"1530208886966";"-175.0"
"1530208886967";"-173.0"
"1530208886967";"-170.0"
"1530208886967";"-167.0"
"1530208886967";"-163.0"
"1530208886990";"-160.0"
"1530208886990";"-157.0"
"1530208886990";"-154.0"
"1530208886990";"-150.0"
"1530208886990";"-147.0"
"1530208886991";"-143.0"
"1530208887011";"-140.0"
"1530208887011";"-136.0"
"1530208887012";"-133.0"
"1530208887012";"-129.0"
"1530208887012";"-125.0"
"1530208887012";"-122.0"
"1530208887033";"-118.0"
"1530208887033";"-115.0"
"1530208887033";"-111.0"
"1530208887033";"-108.0"
"1530208887033";"-104.0"
"1530208887033";"-101.0"
"1530208887033";"-97.0"
"1530208887054";"-94.0"
"1530208887054";"-91.0"
"1530208887054";"-87.0"
"1530208887054";"-84.0"
"1530208887054";"-81.0"
"1530208887054";"-78.0"
"1530208887054";"-75.0"
"1530208887055";"-72.0"
"1530208887055";"-69.0"
"1530208887075";"-66.0"
"1530208887075";"-64.0"
"1530208887096";"-61.0"
"1530208887096";"-58.0"
"1530208887096";"-55.0"
"1530208887096";"-53.0"
"1530208887096";"-50.0"
"1530208887097";"-48.0"
"1530208887098";"-45.0"
"1530208887098";"-43.0"
"1530208887098";"-41.0"
"1530208887119";"-38.0"
"1530208887119";"-36.0"
"1530208887119";"-34.0"
"1530208887119";"-32.0"
"1530208887120";"-30.0"
"1530208887120";"-28.0"
"1530208887141";"-26.0"
"1530208887141";"-24.0"
"1530208887141";"-22.0"
"1530208887141";"-21.0"
"1530208887142";"-19.0"
"1530208887142";"-17.0"
"1530208887142";"-15.0"
"1530208887163";"-14.0"
"1530208887164";"-12.0"
"1530208887164";"-11.0"
"1530208887164";"-9.0"
"1530208887164";"-8.0"
"1530208887186";"-6.0"
"1530208887186";"-5.0"
"1530208887186";"-4.0"
"1530208887186";"-2.0"
"1530208887186";"-1.0"
"1530208887186";"0.0"
"1530208887207";"1.0"
"1530208887207";"2.0"
"1530208887207";"3.0"
"1530208887207";"4.0"
"1530208887228";"5.0"
"1530208887228";"6.0"
"1530208887228";"7.0"
"1530208887229";"8.0"
"1530208887249";"9.0"
"1530208887270";"8.0"
"1530208887313";"7.0"
"1530208887334";"6.0"
"1530208887334";"5.0"
"1530208887355";"4.0"
"1530208887376";"3.0"
"1530208887377";"2.0"
"1530208887377";"1.0"
"1530208887400";"0.0"
"1530208887400";"-1.0"
"1530208887400";"-2.0"
"1530208887448";"-3.0"
"1530208887494";"-2.0"
"1530208887495";"-1.0"
"1530208887495";"0.0"
"1530208887517";"1.0"
"1530208887517";"2.0"
"1530208887538";"3.0"
"1530208887538";"4.0"
"1530208887558";"5.0"
"1530208887558";"6.0"
"1530208887559";"7.0"
"1530208887581";"8.0"
"1530208887581";"9.0"
"1530208887666";"8.0"
"1530208887687";"7.0"
"1530208887688";"6.0"
"1530208887710";"5.0"
"1530208887710";"4.0"
"1530208887731";"3.0"
"1530208887753";"2.0"
"1530208887796";"1.0"
"1530208887839";"0.0"
"1530208887902";"1.0"
"1530208887965";"2.0"
"1530208888010";"3.0"
"1530208888010";"2.0"
"1530208888053";"1.0"
"1530208888074";"0.0"
"1530208888095";"-1.0"
"1530208888119";"-2.0"
"1530208888224";"-3.0"
"1530208888268";"-4.0"
"1530208888312";"-5.0"
"1530208888333";"-4.0"
"1530208888354";"-3.0"
"1530208888396";"-2.0"
"1530208888474";"-1.0"
"1530208888645";"0.0"
"1530208888751";"1.0"
"1530208888774";"2.0"
"1530208888774";"3.0"
"1530208888775";"4.0"
"1530208888796";"5.0"
"1530208888817";"6.0"
"1530208888817";"7.0"
"1530208888817";"8.0"
"1530208888817";"9.0"
"1530208888838";"10.0"
"1530208888841";"11.0"
"1530208888862";"12.0"
"1530208888862";"13.0"
"1530208888883";"14.0"
"1530208888927";"13.0"
"1530208888947";"12.0"
