"System Time Index";"BVP Data"
"1530209344242";"-1.0"
"1530209344242";"-2.0"
"1530209344263";"-3.0"
"1530209344263";"-4.0"
"1530209344284";"-5.0"
"1530209344284";"-6.0"
"1530209344325";"-7.0"
"1530209344346";"-8.0"
"1530209344408";"-9.0"
"1530209344475";"-8.0"
"1530209344475";"-7.0"
"1530209344475";"-6.0"
"1530209344479";"-5.0"
"1530209344479";"-4.0"
"1530209344500";"-3.0"
"1530209344500";"-2.0"
"1530209344501";"-1.0"
"1530209344501";"0.0"
"1530209344501";"1.0"
"1530209344609";"2.0"
"1530209344650";"3.0"
"1530209344693";"4.0"
"1530209344797";"5.0"
"1530209344818";"4.0"
"1530209344818";"3.0"
"1530209344839";"2.0"
"1530209344839";"1.0"
"1530209344860";"0.0"
"1530209344881";"-1.0"
"1530209344922";"-2.0"
"1530209344922";"-3.0"
"1530209344922";"-4.0"
"1530209344943";"-5.0"
"1530209344964";"-6.0"
"1530209344985";"-7.0"
"1530209345006";"-8.0"
"1530209345006";"-9.0"
"1530209345027";"-10.0"
"1530209345028";"-11.0"
"1530209345116";"-12.0"
"1530209345152";"-13.0"
"1530209345174";"-12.0"
"1530209345237";"-11.0"
"1530209345237";"-12.0"
"1530209345321";"-13.0"
"1530209345363";"-14.0"
"1530209345364";"-13.0"
"1530209345385";"-12.0"
"1530209345385";"-11.0"
"1530209345385";"-10.0"
"1530209345385";"-9.0"
"1530209345406";"-8.0"
"1530209345406";"-7.0"
"1530209345406";"-6.0"
"1530209345406";"-4.0"
"1530209345406";"-3.0"
"1530209345406";"-2.0"
"1530209345406";"-1.0"
"1530209345407";"0.0"
"1530209345427";"1.0"
"1530209345427";"2.0"
"1530209345448";"4.0"
"1530209345448";"5.0"
"1530209345448";"6.0"
"1530209345448";"7.0"
"1530209345490";"8.0"
"1530209345553";"9.0"
"1530209345657";"10.0"
"1530209345678";"9.0"
"1530209345699";"8.0"
"1530209345699";"7.0"
"1530209345700";"6.0"
"1530209345700";"5.0"
"1530209345721";"4.0"
"1530209345721";"3.0"
"1530209345742";"2.0"
"1530209345743";"1.0"
"1530209345743";"0.0"
"1530209345764";"-1.0"
"1530209345764";"-2.0"
"1530209345785";"-3.0"
"1530209345785";"-4.0"
"1530209345785";"-5.0"
"1530209345806";"-6.0"
"1530209345806";"-7.0"
"1530209345827";"-8.0"
"1530209345827";"-9.0"
"1530209345848";"-10.0"
"1530209345869";"-11.0"
"1530209345870";"-12.0"
"1530209345891";"-13.0"
"1530209345932";"-14.0"
"1530209345933";"-15.0"
"1530209345954";"-16.0"
"1530209345996";"-17.0"
"1530209346017";"-18.0"
"1530209346106";"-17.0"
"1530209346126";"-16.0"
"1530209346147";"-15.0"
"1530209346169";"-14.0"
"1530209346170";"-13.0"
"1530209346232";"-12.0"
"1530209346253";"-11.0"
"1530209346253";"-10.0"
"1530209346253";"-9.0"
"1530209346274";"-8.0"
"1530209346274";"-7.0"
"1530209346274";"-6.0"
"1530209346274";"-5.0"
"1530209346274";"-4.0"
"1530209346275";"-2.0"
"1530209346275";"-1.0"
"1530209346295";"0.0"
"1530209346296";"2.0"
"1530209346296";"3.0"
"1530209346296";"4.0"
"1530209346297";"6.0"
"1530209346297";"7.0"
"1530209346320";"8.0"
"1530209346320";"10.0"
"1530209346320";"11.0"
"1530209346320";"12.0"
"1530209346320";"13.0"
"1530209346404";"14.0"
"1530209346487";"13.0"
"1530209346508";"12.0"
"1530209346508";"11.0"
"1530209346508";"10.0"
"1530209346508";"9.0"
"1530209346509";"8.0"
"1530209346529";"7.0"
"1530209346529";"6.0"
"1530209346529";"5.0"
"1530209346550";"4.0"
"1530209346550";"3.0"
"1530209346550";"2.0"
"1530209346550";"1.0"
"1530209346571";"0.0"
"1530209346592";"-1.0"
"1530209346592";"-2.0"
"1530209346613";"-3.0"
"1530209346634";"-4.0"
"1530209346675";"-5.0"
"1530209346717";"-6.0"
"1530209346758";"-7.0"
"1530209346779";"-8.0"
"1530209346821";"-9.0"
"1530209346842";"-10.0"
"1530209346953";"-11.0"
"1530209346974";"-10.0"
"1530209346995";"-11.0"
"1530209347016";"-10.0"
"1530209347036";"-9.0"
"1530209347037";"-8.0"
"1530209347037";"-7.0"
"1530209347058";"-6.0"
"1530209347079";"-5.0"
"1530209347079";"-4.0"
"1530209347079";"-3.0"
"1530209347079";"-2.0"
"1530209347079";"-1.0"
"1530209347079";"0.0"
"1530209347079";"1.0"
"1530209347100";"2.0"
"1530209347100";"3.0"
"1530209347101";"5.0"
"1530209347101";"6.0"
"1530209347101";"7.0"
"1530209347101";"9.0"
"1530209347101";"10.0"
"1530209347101";"11.0"
"1530209347101";"13.0"
"1530209347122";"14.0"
"1530209347123";"15.0"
"1530209347165";"16.0"
"1530209347228";"17.0"
"1530209347314";"18.0"
"1530209347314";"17.0"
"1530209347335";"16.0"
"1530209347335";"15.0"
"1530209347335";"14.0"
"1530209347335";"13.0"
"1530209347356";"12.0"
"1530209347357";"11.0"
"1530209347357";"10.0"
"1530209347357";"9.0"
"1530209347358";"8.0"
"1530209347378";"7.0"
"1530209347378";"6.0"
"1530209347379";"5.0"
"1530209347399";"4.0"
"1530209347420";"3.0"
"1530209347422";"2.0"
"1530209347422";"1.0"
"1530209347443";"0.0"
"1530209347464";"-1.0"
"1530209347485";"-2.0"
"1530209347506";"-3.0"
"1530209347527";"-4.0"
"1530209347550";"-5.0"
"1530209347571";"-6.0"
"1530209347571";"-7.0"
"1530209347613";"-8.0"
"1530209347633";"-9.0"
"1530209347634";"-10.0"
"1530209347676";"-11.0"
"1530209347697";"-12.0"
"1530209347718";"-13.0"
"1530209347887";"-12.0"
"1530209347889";"-11.0"
"1530209347910";"-10.0"
"1530209347910";"-9.0"
"1530209347910";"-8.0"
"1530209347910";"-7.0"
"1530209347910";"-6.0"
"1530209347911";"-5.0"
"1530209347931";"-4.0"
"1530209347932";"-2.0"
"1530209347932";"-1.0"
"1530209347932";"0.0"
"1530209347952";"1.0"
"1530209347953";"2.0"
"1530209347953";"4.0"
"1530209347953";"5.0"
"1530209347954";"7.0"
"1530209347954";"8.0"
"1530209347955";"10.0"
"1530209347955";"12.0"
"1530209347955";"13.0"
"1530209347975";"15.0"
"1530209347976";"16.0"
"1530209347976";"18.0"
"1530209347997";"19.0"
"1530209348081";"20.0"
"1530209348124";"21.0"
"1530209348187";"22.0"
"1530209348188";"21.0"
"1530209348188";"20.0"
"1530209348188";"19.0"
"1530209348188";"18.0"
"1530209348209";"17.0"
"1530209348209";"16.0"
"1530209348209";"15.0"
"1530209348209";"14.0"
"1530209348210";"13.0"
"1530209348210";"12.0"
"1530209348210";"11.0"
"1530209348210";"10.0"
"1530209348232";"9.0"
"1530209348232";"8.0"
"1530209348232";"7.0"
"1530209348253";"6.0"
"1530209348253";"5.0"
"1530209348253";"4.0"
"1530209348253";"3.0"
"1530209348274";"2.0"
"1530209348274";"1.0"
"1530209348274";"0.0"
"1530209348275";"-1.0"
"1530209348295";"-2.0"
"1530209348316";"-3.0"
"1530209348317";"-4.0"
"1530209348338";"-5.0"
"1530209348360";"-6.0"
"1530209348381";"-7.0"
"1530209348401";"-8.0"
"1530209348423";"-9.0"
"1530209348466";"-10.0"
"1530209348508";"-11.0"
"1530209348556";"-12.0"
"1530209348705";"-13.0"
"1530209348746";"-12.0"
"1530209348748";"-11.0"
"1530209348768";"-10.0"
"1530209348769";"-9.0"
"1530209348769";"-8.0"
"1530209348769";"-7.0"
"1530209348790";"-6.0"
"1530209348790";"-5.0"
"1530209348790";"-4.0"
"1530209348790";"-3.0"
"1530209348790";"-1.0"
"1530209348790";"0.0"
"1530209348811";"1.0"
"1530209348812";"3.0"
"1530209348812";"4.0"
"1530209348812";"5.0"
"1530209348813";"6.0"
"1530209348834";"8.0"
"1530209348834";"9.0"
"1530209348834";"10.0"
"1530209348834";"11.0"
"1530209348834";"12.0"
"1530209348834";"13.0"
"1530209348835";"15.0"
"1530209348835";"16.0"
"1530209348855";"17.0"
"1530209348856";"18.0"
"1530209348856";"19.0"
"1530209348856";"20.0"
"1530209348856";"21.0"
"1530209348856";"22.0"
"1530209348918";"23.0"
"1530209349002";"22.0"
"1530209349003";"21.0"
"1530209349003";"20.0"
"1530209349003";"19.0"
"1530209349024";"18.0"
"1530209349025";"17.0"
"1530209349025";"16.0"
"1530209349025";"15.0"
"1530209349046";"14.0"
"1530209349046";"13.0"
"1530209349046";"12.0"
"1530209349047";"11.0"
"1530209349067";"10.0"
"1530209349090";"9.0"
"1530209349091";"8.0"
"1530209349111";"7.0"
"1530209349112";"6.0"
"1530209349112";"5.0"
"1530209349112";"4.0"
"1530209349133";"3.0"
"1530209349133";"2.0"
"1530209349133";"1.0"
"1530209349133";"0.0"
"1530209349154";"-1.0"
"1530209349154";"-2.0"
"1530209349154";"-3.0"
"1530209349175";"-4.0"
"1530209349176";"-5.0"
"1530209349197";"-6.0"
"1530209349218";"-7.0"
"1530209349239";"-8.0"
"1530209349260";"-9.0"
"1530209349260";"-10.0"
"1530209349281";"-11.0"
"1530209349303";"-12.0"
"1530209349326";"-13.0"
"1530209349348";"-14.0"
"1530209349371";"-15.0"
"1530209349435";"-16.0"
"1530209349477";"-15.0"
"1530209349561";"-14.0"
"1530209349582";"-13.0"
"1530209349582";"-12.0"
"1530209349602";"-11.0"
"1530209349603";"-10.0"
"1530209349603";"-9.0"
"1530209349623";"-8.0"
"1530209349623";"-7.0"
"1530209349623";"-6.0"
"1530209349624";"-5.0"
"1530209349624";"-4.0"
"1530209349644";"-3.0"
"1530209349645";"-2.0"
"1530209349645";"0.0"
"1530209349645";"1.0"
"1530209349645";"2.0"
"1530209349645";"4.0"
"1530209349666";"5.0"
"1530209349666";"6.0"
"1530209349666";"7.0"
"1530209349667";"9.0"
"1530209349667";"10.0"
"1530209349668";"11.0"
"1530209349689";"12.0"
"1530209349689";"13.0"
"1530209349690";"14.0"
"1530209349693";"15.0"
"1530209349693";"16.0"
"1530209349693";"17.0"
"1530209349694";"18.0"
"1530209349714";"19.0"
"1530209349715";"20.0"
"1530209349715";"21.0"
"1530209349715";"22.0"
"1530209349715";"23.0"
"1530209349736";"24.0"
"1530209349736";"25.0"
"1530209349758";"24.0"
"1530209349779";"23.0"
"1530209349800";"22.0"
"1530209349800";"21.0"
"1530209349800";"20.0"
"1530209349821";"19.0"
"1530209349822";"18.0"
"1530209349822";"17.0"
"1530209349822";"16.0"
"1530209349843";"15.0"
"1530209349843";"14.0"
"1530209349843";"13.0"
"1530209349843";"12.0"
"1530209349864";"11.0"
"1530209349864";"10.0"
"1530209349864";"9.0"
"1530209349885";"8.0"
"1530209349885";"7.0"
"1530209349886";"6.0"
"1530209349907";"5.0"
"1530209349907";"4.0"
"1530209349907";"3.0"
"1530209349928";"2.0"
"1530209349929";"1.0"
"1530209349950";"0.0"
"1530209349971";"-1.0"
"1530209349992";"-2.0"
"1530209350012";"-3.0"
"1530209350035";"-4.0"
"1530209350056";"-5.0"
"1530209350077";"-6.0"
"1530209350099";"-7.0"
"1530209350100";"-8.0"
"1530209350121";"-9.0"
"1530209350142";"-10.0"
"1530209350142";"-11.0"
"1530209350143";"-12.0"
"1530209350210";"-13.0"
"1530209350231";"-14.0"
"1530209350276";"-13.0"
"1530209350361";"-12.0"
"1530209350382";"-13.0"
"1530209350467";"-12.0"
"1530209350468";"-11.0"
"1530209350488";"-10.0"
"1530209350489";"-9.0"
"1530209350489";"-8.0"
"1530209350489";"-7.0"
"1530209350489";"-6.0"
"1530209350510";"-5.0"
"1530209350510";"-4.0"
"1530209350510";"-3.0"
"1530209350511";"-2.0"
"1530209350511";"-1.0"
"1530209350511";"0.0"
"1530209350532";"1.0"
"1530209350532";"2.0"
"1530209350532";"3.0"
"1530209350532";"4.0"
"1530209350532";"6.0"
"1530209350532";"7.0"
"1530209350532";"8.0"
"1530209350532";"9.0"
"1530209350553";"11.0"
"1530209350553";"12.0"
"1530209350554";"13.0"
"1530209350554";"15.0"
"1530209350554";"16.0"
"1530209350554";"17.0"
"1530209350554";"18.0"
"1530209350575";"19.0"
"1530209350576";"20.0"
"1530209350576";"21.0"
"1530209350596";"22.0"
"1530209350597";"23.0"
"1530209350597";"24.0"
"1530209350597";"25.0"
"1530209350618";"26.0"
"1530209350701";"27.0"
"1530209350742";"26.0"
"1530209350742";"25.0"
"1530209350743";"24.0"
"1530209350764";"23.0"
"1530209350785";"22.0"
"1530209350786";"21.0"
"1530209350786";"20.0"
"1530209350786";"19.0"
"1530209350807";"18.0"
"1530209350807";"17.0"
"1530209350807";"16.0"
"1530209350828";"15.0"
"1530209350828";"14.0"
"1530209350828";"13.0"
"1530209350829";"12.0"
"1530209350849";"11.0"
"1530209350849";"10.0"
"1530209350849";"9.0"
"1530209350870";"8.0"
"1530209350870";"7.0"
"1530209350891";"6.0"
"1530209350912";"5.0"
"1530209350932";"4.0"
"1530209350953";"3.0"
"1530209350954";"2.0"
"1530209350975";"1.0"
"1530209350996";"0.0"
"1530209351017";"-1.0"
"1530209351018";"-2.0"
"1530209351039";"-3.0"
"1530209351039";"-4.0"
"1530209351060";"-5.0"
"1530209351060";"-6.0"
"1530209351061";"-7.0"
"1530209351061";"-8.0"
"1530209351061";"-9.0"
"1530209351061";"-10.0"
"1530209351061";"-11.0"
"1530209351082";"-12.0"
"1530209351083";"-13.0"
"1530209351104";"-14.0"
"1530209351104";"-15.0"
"1530209351125";"-16.0"
"1530209351168";"-17.0"
"1530209351169";"-18.0"
"1530209351170";"-19.0"
"1530209351211";"-20.0"
"1530209351212";"-21.0"
"1530209351234";"-22.0"
"1530209351234";"-23.0"
"1530209351276";"-24.0"
"1530209351362";"-25.0"
"1530209351383";"-26.0"
"1530209351383";"-25.0"
"1530209351424";"-24.0"
"1530209351425";"-23.0"
"1530209351426";"-22.0"
"1530209351426";"-21.0"
"1530209351426";"-20.0"
"1530209351426";"-19.0"
"1530209351426";"-18.0"
"1530209351426";"-17.0"
"1530209351447";"-16.0"
"1530209351447";"-15.0"
"1530209351447";"-13.0"
"1530209351447";"-12.0"
"1530209351448";"-11.0"
"1530209351448";"-9.0"
"1530209351470";"-8.0"
"1530209351470";"-6.0"
"1530209351470";"-5.0"
"1530209351470";"-3.0"
"1530209351491";"-2.0"
"1530209351491";"0.0"
"1530209351493";"1.0"
"1530209351493";"3.0"
"1530209351493";"4.0"
"1530209351493";"6.0"
"1530209351493";"7.0"
"1530209351513";"9.0"
"1530209351514";"10.0"
"1530209351514";"11.0"
"1530209351514";"12.0"
"1530209351514";"13.0"
"1530209351514";"15.0"
"1530209351535";"16.0"
"1530209351535";"17.0"
"1530209351535";"18.0"
"1530209351535";"19.0"
"1530209351556";"20.0"
"1530209351556";"21.0"
"1530209351557";"22.0"
"1530209351577";"23.0"
"1530209351577";"22.0"
"1530209351598";"21.0"
"1530209351621";"20.0"
"1530209351641";"19.0"
"1530209351642";"18.0"
"1530209351662";"17.0"
"1530209351663";"16.0"
"1530209351663";"15.0"
"1530209351663";"14.0"
"1530209351683";"13.0"
"1530209351684";"12.0"
"1530209351684";"11.0"
"1530209351685";"10.0"
"1530209351685";"9.0"
"1530209351686";"8.0"
"1530209351706";"7.0"
"1530209351707";"6.0"
"1530209351707";"5.0"
"1530209351727";"4.0"
"1530209351728";"3.0"
"1530209351749";"2.0"
"1530209351771";"3.0"
"1530209351771";"4.0"
"1530209351816";"5.0"
"1530209351817";"4.0"
"1530209351838";"3.0"
"1530209351859";"2.0"
"1530209351859";"1.0"
"1530209351880";"0.0"
"1530209351880";"-1.0"
"1530209351881";"-2.0"
"1530209351902";"-3.0"
"1530209351902";"-4.0"
"1530209351902";"-5.0"
"1530209351902";"-6.0"
"1530209351902";"-7.0"
"1530209351902";"-8.0"
"1530209351902";"-9.0"
"1530209351923";"-10.0"
"1530209351924";"-11.0"
"1530209351924";"-12.0"
"1530209351944";"-13.0"
"1530209351945";"-14.0"
"1530209351945";"-15.0"
"1530209351945";"-16.0"
"1530209351945";"-17.0"
"1530209351946";"-18.0"
"1530209351946";"-19.0"
"1530209351967";"-20.0"
"1530209351967";"-21.0"
"1530209351967";"-22.0"
"1530209351988";"-23.0"
"1530209351989";"-24.0"
"1530209352030";"-23.0"
"1530209352031";"-22.0"
"1530209352051";"-21.0"
"1530209352077";"-20.0"
"1530209352078";"-19.0"
"1530209352098";"-18.0"
"1530209352098";"-17.0"
"1530209352099";"-16.0"
"1530209352099";"-15.0"
"1530209352099";"-14.0"
"1530209352100";"-13.0"
"1530209352121";"-12.0"
"1530209352121";"-11.0"
"1530209352121";"-10.0"
"1530209352122";"-9.0"
"1530209352122";"-8.0"
"1530209352154";"-7.0"
"1530209352175";"-6.0"
"1530209352175";"-5.0"
"1530209352177";"-4.0"
"1530209352178";"-3.0"
"1530209352221";"-2.0"
"1530209352222";"-1.0"
"1530209352243";"0.0"
"1530209352285";"-1.0"
"1530209352286";"-2.0"
"1530209352308";"-3.0"
"1530209352308";"-4.0"
"1530209352309";"-5.0"
"1530209352330";"-6.0"
"1530209352330";"-7.0"
"1530209352330";"-8.0"
"1530209352331";"-9.0"
"1530209352352";"-10.0"
"1530209352352";"-11.0"
"1530209352353";"-12.0"
"1530209352395";"-11.0"
"1530209352395";"-10.0"
"1530209352395";"-9.0"
"1530209352395";"-8.0"
"1530209352395";"-7.0"
"1530209352416";"-6.0"
"1530209352416";"-5.0"
"1530209352416";"-4.0"
"1530209352417";"-3.0"
"1530209352417";"-2.0"
"1530209352417";"-1.0"
"1530209352438";"0.0"
"1530209352438";"1.0"
"1530209352438";"2.0"
"1530209352438";"3.0"
"1530209352459";"4.0"
"1530209352460";"5.0"
"1530209352460";"6.0"
"1530209352481";"7.0"
"1530209352482";"8.0"
"1530209352482";"9.0"
"1530209352482";"10.0"
"1530209352485";"11.0"
"1530209352485";"12.0"
"1530209352506";"13.0"
"1530209352506";"14.0"
"1530209352527";"15.0"
"1530209352548";"14.0"
"1530209352571";"13.0"
"1530209352571";"12.0"
"1530209352571";"11.0"
"1530209352571";"10.0"
"1530209352592";"9.0"
"1530209352592";"8.0"
"1530209352592";"7.0"
"1530209352613";"6.0"
"1530209352613";"5.0"
"1530209352613";"4.0"
"1530209352613";"3.0"
"1530209352634";"2.0"
"1530209352635";"1.0"
"1530209352635";"0.0"
"1530209352635";"-1.0"
"1530209352635";"-2.0"
"1530209352656";"-3.0"
"1530209352656";"-4.0"
"1530209352656";"-5.0"
"1530209352656";"-6.0"
"1530209352677";"-7.0"
"1530209352677";"-8.0"
"1530209352698";"-9.0"
"1530209352699";"-10.0"
"1530209352699";"-11.0"
"1530209352741";"-10.0"
"1530209352743";"-9.0"
"1530209352764";"-8.0"
"1530209352764";"-7.0"
"1530209352785";"-6.0"
"1530209352806";"-5.0"
"1530209352852";"-4.0"
"1530209352852";"-3.0"
"1530209352873";"-2.0"
"1530209352873";"-1.0"
"1530209352873";"0.0"
"1530209352958";"-1.0"
"1530209352959";"-2.0"
"1530209352979";"-3.0"
"1530209352979";"-4.0"
"1530209352980";"-5.0"
"1530209353001";"-4.0"
"1530209353021";"-3.0"
"1530209353023";"-2.0"
"1530209353023";"-1.0"
"1530209353023";"0.0"
"1530209353044";"1.0"
"1530209353044";"3.0"
"1530209353044";"4.0"
"1530209353065";"5.0"
"1530209353065";"6.0"
"1530209353065";"8.0"
"1530209353065";"9.0"
"1530209353065";"10.0"
"1530209353065";"11.0"
"1530209353086";"12.0"
"1530209353086";"13.0"
"1530209353086";"14.0"
"1530209353087";"15.0"
"1530209353087";"16.0"
"1530209353088";"17.0"
"1530209353108";"18.0"
"1530209353109";"19.0"
"1530209353165";"20.0"
"1530209353186";"21.0"
"1530209353186";"20.0"
"1530209353189";"19.0"
"1530209353189";"18.0"
"1530209353189";"17.0"
"1530209353189";"16.0"
"1530209353190";"15.0"
"1530209353190";"14.0"
"1530209353211";"13.0"
"1530209353211";"12.0"
"1530209353211";"11.0"
"1530209353211";"10.0"
"1530209353211";"9.0"
"1530209353211";"8.0"
"1530209353211";"7.0"
"1530209353211";"6.0"
"1530209353234";"5.0"
"1530209353234";"4.0"
"1530209353255";"5.0"
"1530209353275";"6.0"
"1530209353296";"7.0"
"1530209353297";"8.0"
"1530209353318";"7.0"
"1530209353339";"6.0"
"1530209353339";"5.0"
"1530209353339";"4.0"
"1530209353361";"3.0"
"1530209353382";"4.0"
"1530209353403";"5.0"
"1530209353403";"6.0"
"1530209353424";"7.0"
"1530209353424";"8.0"
"1530209353445";"9.0"
"1530209353466";"10.0"
"1530209353466";"11.0"
"1530209353488";"10.0"
"1530209353509";"9.0"
"1530209353510";"8.0"
"1530209353530";"7.0"
"1530209353551";"6.0"
"1530209353552";"5.0"
"1530209353552";"4.0"
"1530209353552";"3.0"
"1530209353576";"2.0"
"1530209353576";"1.0"
"1530209353576";"0.0"
"1530209353576";"-1.0"
"1530209353576";"-2.0"
"1530209353576";"-3.0"
"1530209353597";"-4.0"
"1530209353597";"-5.0"
"1530209353597";"-6.0"
"1530209353597";"-7.0"
"1530209353597";"-8.0"
"1530209353618";"-9.0"
"1530209353620";"-10.0"
"1530209353641";"-11.0"
"1530209353641";"-12.0"
"1530209353642";"-13.0"
"1530209353662";"-14.0"
"1530209353662";"-15.0"
"1530209353683";"-16.0"
"1530209353683";"-17.0"
"1530209353684";"-18.0"
"1530209353685";"-19.0"
"1530209353705";"-20.0"
"1530209353726";"-19.0"
"1530209353747";"-18.0"
"1530209353747";"-17.0"
"1530209353747";"-16.0"
"1530209353768";"-15.0"
"1530209353768";"-14.0"
"1530209353769";"-13.0"
"1530209353769";"-12.0"
"1530209353789";"-11.0"
"1530209353790";"-10.0"
"1530209353790";"-9.0"
"1530209353790";"-8.0"
"1530209353811";"-7.0"
"1530209353811";"-6.0"
"1530209353811";"-5.0"
"1530209353832";"-4.0"
"1530209353852";"-3.0"
"1530209353853";"-2.0"
"1530209353873";"-1.0"
"1530209353895";"0.0"
"1530209353980";"-1.0"
"1530209353980";"-2.0"
"1530209353981";"-3.0"
"1530209354001";"-4.0"
"1530209354001";"-5.0"
"1530209354001";"-6.0"
"1530209354022";"-7.0"
"1530209354023";"-8.0"
"1530209354024";"-9.0"
"1530209354045";"-10.0"
"1530209354045";"-11.0"
"1530209354045";"-12.0"
"1530209354045";"-13.0"
"1530209354045";"-14.0"
"1530209354045";"-15.0"
"1530209354066";"-16.0"
"1530209354066";"-17.0"
"1530209354140";"-16.0"
"1530209354141";"-15.0"
"1530209354141";"-14.0"
"1530209354141";"-13.0"
"1530209354141";"-12.0"
"1530209354141";"-10.0"
"1530209354141";"-9.0"
"1530209354141";"-8.0"
"1530209354142";"-6.0"
"1530209354142";"-5.0"
"1530209354142";"-3.0"
"1530209354142";"-2.0"
"1530209354163";"0.0"
"1530209354163";"1.0"
"1530209354163";"2.0"
"1530209354163";"4.0"
"1530209354163";"5.0"
"1530209354164";"7.0"
"1530209354164";"8.0"
"1530209354164";"10.0"
"1530209354164";"11.0"
"1530209354184";"13.0"
"1530209354185";"14.0"
"1530209354185";"16.0"
"1530209354185";"17.0"
"1530209354185";"18.0"
"1530209354185";"20.0"
"1530209354205";"21.0"
"1530209354206";"22.0"
"1530209354206";"24.0"
"1530209354206";"25.0"
"1530209354206";"26.0"
"1530209354249";"27.0"
"1530209354312";"28.0"
"1530209354333";"27.0"
"1530209354333";"26.0"
"1530209354354";"25.0"
"1530209354356";"23.0"
"1530209354356";"22.0"
"1530209354377";"21.0"
"1530209354377";"20.0"
"1530209354377";"18.0"
"1530209354377";"17.0"
"1530209354377";"16.0"
"1530209354377";"15.0"
"1530209354377";"14.0"
"1530209354378";"13.0"
"1530209354378";"12.0"
"1530209354398";"11.0"
"1530209354398";"10.0"
"1530209354398";"9.0"
"1530209354398";"8.0"
"1530209354399";"7.0"
"1530209354419";"6.0"
"1530209354421";"5.0"
"1530209354462";"6.0"
"1530209354463";"7.0"
"1530209354463";"8.0"
"1530209354484";"7.0"
"1530209354505";"6.0"
"1530209354505";"5.0"
"1530209354505";"4.0"
"1530209354526";"3.0"
"1530209354526";"2.0"
"1530209354526";"1.0"
"1530209354526";"0.0"
"1530209354527";"-1.0"
"1530209354547";"-2.0"
"1530209354547";"-3.0"
"1530209354547";"-4.0"
"1530209354568";"-5.0"
"1530209354568";"-6.0"
"1530209354568";"-7.0"
"1530209354589";"-8.0"
"1530209354589";"-9.0"
"1530209354590";"-10.0"
"1530209354610";"-11.0"
"1530209354633";"-12.0"
"1530209354654";"-13.0"
"1530209354697";"-14.0"
"1530209354718";"-15.0"
"1530209354718";"-16.0"
"1530209354718";"-17.0"
"1530209354739";"-18.0"
"1530209354739";"-19.0"
"1530209354739";"-20.0"
"1530209354739";"-21.0"
"1530209354739";"-22.0"
"1530209354739";"-23.0"
"1530209354739";"-24.0"
"1530209354739";"-25.0"
"1530209354739";"-26.0"
"1530209354761";"-27.0"
"1530209354761";"-28.0"
"1530209354761";"-29.0"
"1530209354761";"-30.0"
"1530209354762";"-31.0"
"1530209354762";"-32.0"
"1530209354782";"-33.0"
"1530209354783";"-34.0"
"1530209354783";"-35.0"
"1530209354848";"-34.0"
"1530209354848";"-33.0"
"1530209354849";"-32.0"
"1530209354849";"-31.0"
"1530209354869";"-30.0"
"1530209354870";"-29.0"
"1530209354870";"-28.0"
"1530209354870";"-27.0"
"1530209354890";"-26.0"
"1530209354891";"-25.0"
"1530209354891";"-24.0"
"1530209354891";"-23.0"
"1530209354891";"-22.0"
"1530209354912";"-21.0"
"1530209354912";"-20.0"
"1530209354912";"-19.0"
"1530209354912";"-18.0"
"1530209354912";"-17.0"
"1530209354913";"-16.0"
"1530209354913";"-15.0"
"1530209354935";"-14.0"
"1530209354935";"-13.0"
"1530209354935";"-12.0"
"1530209354935";"-11.0"
"1530209354935";"-9.0"
"1530209354935";"-8.0"
"1530209354957";"-7.0"
"1530209354959";"-5.0"
"1530209354959";"-4.0"
"1530209354959";"-2.0"
"1530209354959";"0.0"
"1530209354980";"2.0"
"1530209354980";"4.0"
"1530209354980";"6.0"
"1530209354980";"8.0"
"1530209354980";"9.0"
"1530209354981";"11.0"
"1530209355001";"13.0"
"1530209355002";"15.0"
"1530209355002";"17.0"
"1530209355002";"19.0"
"1530209355002";"21.0"
"1530209355002";"22.0"
"1530209355023";"24.0"
"1530209355023";"26.0"
"1530209355023";"28.0"
"1530209355023";"29.0"
"1530209355023";"30.0"
"1530209355070";"31.0"
"1530209355133";"32.0"
"1530209355157";"33.0"
"1530209355199";"32.0"
"1530209355199";"31.0"
"1530209355220";"30.0"
"1530209355220";"29.0"
"1530209355220";"28.0"
"1530209355221";"27.0"
"1530209355221";"26.0"
"1530209355222";"25.0"
"1530209355222";"24.0"
"1530209355222";"23.0"
"1530209355222";"22.0"
"1530209355243";"21.0"
"1530209355243";"20.0"
"1530209355243";"19.0"
"1530209355244";"18.0"
"1530209355264";"17.0"
"1530209355265";"16.0"
"1530209355265";"15.0"
"1530209355265";"14.0"
"1530209355265";"13.0"
"1530209355265";"12.0"
"1530209355286";"11.0"
"1530209355286";"10.0"
"1530209355288";"9.0"
"1530209355308";"8.0"
"1530209355309";"7.0"
"1530209355309";"6.0"
"1530209355309";"5.0"
"1530209355309";"4.0"
"1530209355309";"3.0"
"1530209355310";"2.0"
"1530209355310";"1.0"
"1530209355330";"0.0"
"1530209355331";"-1.0"
"1530209355351";"-2.0"
"1530209355353";"-3.0"
"1530209355374";"-4.0"
"1530209355374";"-5.0"
"1530209355374";"-6.0"
"1530209355374";"-7.0"
"1530209355374";"-8.0"
"1530209355395";"-9.0"
"1530209355396";"-10.0"
"1530209355396";"-11.0"
"1530209355396";"-12.0"
"1530209355416";"-13.0"
"1530209355417";"-14.0"
"1530209355438";"-15.0"
"1530209355480";"-16.0"
"1530209355482";"-17.0"
"1530209355524";"-18.0"
"1530209355592";"-17.0"
"1530209355633";"-16.0"
"1530209355634";"-15.0"
"1530209355660";"-14.0"
"1530209355682";"-15.0"
"1530209355703";"-16.0"
"1530209355704";"-17.0"
"1530209355747";"-16.0"
"1530209355768";"-15.0"
"1530209355789";"-14.0"
"1530209355789";"-13.0"
"1530209355790";"-12.0"
"1530209355790";"-11.0"
"1530209355790";"-10.0"
"1530209355790";"-9.0"
"1530209355790";"-7.0"
"1530209355790";"-6.0"
"1530209355790";"-4.0"
"1530209355811";"-3.0"
"1530209355811";"-1.0"
"1530209355811";"0.0"
"1530209355811";"1.0"
"1530209355811";"3.0"
"1530209355833";"4.0"
"1530209355833";"6.0"
"1530209355833";"8.0"
"1530209355833";"10.0"
"1530209355833";"12.0"
"1530209355833";"14.0"
"1530209355833";"15.0"
"1530209355854";"17.0"
"1530209355855";"19.0"
"1530209355855";"20.0"
"1530209355855";"22.0"
"1530209355855";"24.0"
"1530209355855";"25.0"
"1530209355875";"27.0"
"1530209355875";"28.0"
"1530209355876";"30.0"
"1530209355876";"31.0"
"1530209355876";"32.0"
"1530209355896";"33.0"
"1530209355897";"34.0"
"1530209355940";"35.0"
"1530209355963";"34.0"
"1530209355964";"33.0"
"1530209355964";"32.0"
"1530209355964";"31.0"
"1530209355964";"30.0"
"1530209355985";"29.0"
"1530209355985";"28.0"
"1530209355985";"27.0"
"1530209355985";"26.0"
"1530209355985";"25.0"
"1530209356006";"24.0"
"1530209356006";"23.0"
"1530209356006";"22.0"
"1530209356006";"21.0"
"1530209356006";"20.0"
"1530209356006";"19.0"
"1530209356027";"17.0"
"1530209356029";"16.0"
"1530209356029";"15.0"
"1530209356029";"14.0"
"1530209356029";"13.0"
"1530209356050";"12.0"
"1530209356050";"11.0"
"1530209356050";"10.0"
"1530209356050";"9.0"
"1530209356050";"8.0"
"1530209356050";"7.0"
"1530209356050";"6.0"
"1530209356051";"5.0"
"1530209356051";"4.0"
"1530209356094";"3.0"
"1530209356095";"2.0"
"1530209356095";"1.0"
"1530209356116";"0.0"
"1530209356116";"-1.0"
"1530209356148";"-2.0"
"1530209356148";"-3.0"
"1530209356169";"-4.0"
"1530209356170";"-5.0"
"1530209356170";"-6.0"
"1530209356170";"-7.0"
"1530209356170";"-8.0"
"1530209356171";"-9.0"
"1530209356171";"-10.0"
"1530209356171";"-11.0"
"1530209356172";"-12.0"
"1530209356194";"-13.0"
"1530209356194";"-14.0"
"1530209356217";"-15.0"
"1530209356258";"-16.0"
"1530209356258";"-17.0"
"1530209356258";"-18.0"
"1530209356258";"-19.0"
"1530209356279";"-20.0"
"1530209356279";"-21.0"
"1530209356279";"-22.0"
"1530209356280";"-23.0"
"1530209356280";"-25.0"
"1530209356281";"-26.0"
"1530209356301";"-27.0"
"1530209356302";"-28.0"
"1530209356302";"-29.0"
"1530209356302";"-30.0"
"1530209356302";"-32.0"
"1530209356302";"-33.0"
"1530209356323";"-34.0"
"1530209356323";"-35.0"
"1530209356323";"-36.0"
"1530209356323";"-37.0"
"1530209356323";"-38.0"
"1530209356323";"-39.0"
"1530209356323";"-40.0"
"1530209356323";"-41.0"
"1530209356323";"-43.0"
"1530209356344";"-44.0"
"1530209356344";"-45.0"
"1530209356344";"-46.0"
"1530209356365";"-47.0"
"1530209356365";"-48.0"
"1530209356365";"-49.0"
"1530209356365";"-50.0"
"1530209356365";"-51.0"
"1530209356366";"-52.0"
"1530209356386";"-53.0"
"1530209356386";"-54.0"
"1530209356390";"-55.0"
"1530209356390";"-56.0"
"1530209356390";"-57.0"
"1530209356390";"-58.0"
"1530209356390";"-59.0"
"1530209356390";"-60.0"
"1530209356391";"-61.0"
"1530209356411";"-62.0"
"1530209356412";"-63.0"
"1530209356412";"-64.0"
"1530209356412";"-65.0"
"1530209356436";"-66.0"
"1530209356437";"-67.0"
"1530209356437";"-68.0"
"1530209356458";"-69.0"
"1530209356500";"-68.0"
"1530209356501";"-67.0"
"1530209356521";"-66.0"
"1530209356521";"-65.0"
"1530209356522";"-64.0"
"1530209356542";"-63.0"
"1530209356542";"-62.0"
"1530209356543";"-61.0"
"1530209356543";"-60.0"
"1530209356564";"-59.0"
"1530209356564";"-58.0"
"1530209356565";"-57.0"
"1530209356565";"-56.0"
"1530209356565";"-55.0"
"1530209356585";"-54.0"
"1530209356585";"-53.0"
"1530209356585";"-52.0"
"1530209356586";"-51.0"
"1530209356586";"-50.0"
"1530209356586";"-49.0"
"1530209356586";"-48.0"
"1530209356606";"-47.0"
"1530209356606";"-46.0"
"1530209356607";"-45.0"
"1530209356607";"-43.0"
"1530209356607";"-42.0"
"1530209356628";"-41.0"
"1530209356628";"-40.0"
"1530209356631";"-38.0"
"1530209356631";"-36.0"
"1530209356631";"-35.0"
"1530209356631";"-33.0"
"1530209356631";"-31.0"
"1530209356652";"-29.0"
"1530209356652";"-26.0"
"1530209356652";"-24.0"
"1530209356653";"-21.0"
"1530209356653";"-18.0"
"1530209356653";"-15.0"
"1530209356653";"-12.0"
"1530209356654";"-9.0"
"1530209356680";"-6.0"
"1530209356680";"-3.0"
"1530209356680";"0.0"
"1530209356680";"3.0"
"1530209356681";"6.0"
"1530209356681";"9.0"
"1530209356702";"12.0"
"1530209356704";"15.0"
"1530209356704";"18.0"
"1530209356704";"21.0"
"1530209356704";"24.0"
"1530209356704";"26.0"
"1530209356725";"28.0"
"1530209356725";"30.0"
"1530209356726";"32.0"
"1530209356726";"34.0"
"1530209356746";"35.0"
"1530209356746";"36.0"
"1530209356746";"38.0"
"1530209356746";"39.0"
"1530209356747";"40.0"
"1530209356747";"41.0"
"1530209356747";"40.0"
"1530209356768";"39.0"
"1530209356768";"38.0"
"1530209356769";"37.0"
"1530209356769";"36.0"
"1530209356789";"35.0"
"1530209356789";"34.0"
"1530209356790";"33.0"
"1530209356790";"32.0"
"1530209356790";"31.0"
"1530209356790";"29.0"
"1530209356810";"28.0"
"1530209356810";"26.0"
"1530209356810";"25.0"
"1530209356810";"23.0"
"1530209356811";"21.0"
"1530209356811";"19.0"
"1530209356811";"16.0"
"1530209356812";"14.0"
"1530209356812";"12.0"
"1530209356832";"9.0"
"1530209356833";"7.0"
"1530209356833";"4.0"
"1530209356853";"2.0"
"1530209356854";"0.0"
"1530209356854";"-3.0"
"1530209356854";"-6.0"
"1530209356854";"-9.0"
"1530209356854";"-12.0"
"1530209356874";"-15.0"
"1530209356875";"-18.0"
"1530209356875";"-21.0"
"1530209356875";"-24.0"
"1530209356875";"-27.0"
"1530209356875";"-30.0"
"1530209356875";"-33.0"
"1530209356875";"-35.0"
"1530209356875";"-38.0"
"1530209356896";"-41.0"
"1530209356896";"-43.0"
"1530209356896";"-46.0"
"1530209356897";"-48.0"
"1530209356897";"-50.0"
"1530209356897";"-52.0"
"1530209356897";"-55.0"
"1530209356920";"-57.0"
"1530209356920";"-59.0"
"1530209356920";"-61.0"
"1530209356920";"-63.0"
"1530209356920";"-64.0"
"1530209356920";"-66.0"
"1530209356941";"-68.0"
"1530209356941";"-70.0"
"1530209356941";"-71.0"
"1530209356941";"-72.0"
"1530209356941";"-73.0"
"1530209356964";"-74.0"
"1530209356965";"-75.0"
"1530209356966";"-76.0"
"1530209356966";"-77.0"
"1530209356966";"-78.0"
"1530209356966";"-79.0"
"1530209357008";"-78.0"
"1530209357029";"-79.0"
"1530209357050";"-80.0"
"1530209357050";"-81.0"
"1530209357050";"-82.0"
"1530209357071";"-83.0"
"1530209357071";"-84.0"
"1530209357071";"-85.0"
"1530209357071";"-86.0"
"1530209357071";"-87.0"
"1530209357071";"-88.0"
"1530209357072";"-89.0"
"1530209357092";"-91.0"
"1530209357093";"-92.0"
"1530209357093";"-93.0"
"1530209357093";"-94.0"
"1530209357093";"-95.0"
"1530209357093";"-96.0"
"1530209357093";"-97.0"
"1530209357094";"-98.0"
"1530209357094";"-99.0"
"1530209357094";"-100.0"
"1530209357135";"-101.0"
"1530209357156";"-100.0"
"1530209357156";"-99.0"
"1530209357178";"-98.0"
"1530209357178";"-97.0"
"1530209357179";"-96.0"
"1530209357179";"-95.0"
"1530209357179";"-94.0"
"1530209357179";"-93.0"
"1530209357199";"-92.0"
"1530209357200";"-91.0"
"1530209357200";"-90.0"
"1530209357200";"-89.0"
"1530209357221";"-88.0"
"1530209357223";"-87.0"
"1530209357243";"-86.0"
"1530209357243";"-85.0"
"1530209357243";"-83.0"
"1530209357244";"-82.0"
"1530209357244";"-80.0"
"1530209357244";"-78.0"
"1530209357244";"-76.0"
"1530209357244";"-74.0"
"1530209357244";"-72.0"
"1530209357244";"-69.0"
"1530209357265";"-67.0"
"1530209357265";"-65.0"
"1530209357265";"-62.0"
"1530209357265";"-59.0"
"1530209357265";"-57.0"
"1530209357265";"-53.0"
"1530209357286";"-50.0"
"1530209357286";"-47.0"
"1530209357286";"-44.0"
"1530209357286";"-40.0"
"1530209357286";"-37.0"
"1530209357287";"-34.0"
"1530209357307";"-30.0"
"1530209357307";"-27.0"
"1530209357307";"-23.0"
"1530209357307";"-20.0"
"1530209357308";"-16.0"
"1530209357328";"-12.0"
"1530209357328";"-9.0"
"1530209357328";"-5.0"
"1530209357329";"-2.0"
"1530209357329";"1.0"
"1530209357329";"4.0"
"1530209357329";"7.0"
"1530209357350";"11.0"
"1530209357350";"14.0"
"1530209357350";"18.0"
"1530209357350";"21.0"
"1530209357350";"25.0"
"1530209357351";"28.0"
"1530209357372";"32.0"
"1530209357372";"35.0"
"1530209357372";"39.0"
"1530209357372";"42.0"
"1530209357372";"45.0"
"1530209357372";"49.0"
"1530209357393";"52.0"
"1530209357393";"55.0"
"1530209357393";"59.0"
"1530209357394";"60.0"
"1530209357414";"61.0"
"1530209357437";"62.0"
"1530209357459";"63.0"
"1530209357460";"64.0"
"1530209357480";"65.0"
"1530209357501";"66.0"
"1530209357502";"67.0"
"1530209357522";"68.0"
"1530209357522";"69.0"
"1530209357543";"70.0"
"1530209357543";"71.0"
"1530209357543";"72.0"
"1530209357565";"73.0"
"1530209357566";"74.0"
"1530209357586";"75.0"
"1530209357587";"76.0"
"1530209357587";"77.0"
"1530209357608";"78.0"
"1530209357609";"79.0"
"1530209357609";"80.0"
"1530209357632";"81.0"
"1530209357653";"82.0"
"1530209357653";"83.0"
"1530209357674";"84.0"
"1530209357695";"81.0"
"1530209357695";"77.0"
"1530209357695";"73.0"
"1530209357695";"69.0"
"1530209357716";"66.0"
"1530209357716";"62.0"
"1530209357716";"59.0"
"1530209357716";"56.0"
"1530209357717";"53.0"
"1530209357717";"50.0"
"1530209357717";"47.0"
"1530209357717";"45.0"
"1530209357737";"43.0"
"1530209357738";"40.0"
"1530209357738";"38.0"
"1530209357738";"36.0"
"1530209357738";"34.0"
"1530209357738";"31.0"
"1530209357738";"29.0"
"1530209357759";"27.0"
"1530209357760";"25.0"
"1530209357760";"23.0"
"1530209357780";"21.0"
"1530209357780";"19.0"
"1530209357780";"17.0"
"1530209357780";"15.0"
"1530209357781";"13.0"
"1530209357781";"11.0"
"1530209357802";"9.0"
"1530209357802";"7.0"
"1530209357802";"5.0"
"1530209357802";"4.0"
"1530209357802";"2.0"
"1530209357802";"0.0"
"1530209357802";"-1.0"
"1530209357802";"-3.0"
"1530209357823";"-5.0"
"1530209357823";"-6.0"
"1530209357824";"-8.0"
"1530209357825";"-10.0"
"1530209357825";"-11.0"
"1530209357825";"-13.0"
"1530209357825";"-14.0"
"1530209357846";"-16.0"
"1530209357846";"-17.0"
"1530209357846";"-18.0"
"1530209357846";"-20.0"
"1530209357846";"-21.0"
"1530209357846";"-22.0"
"1530209357867";"-23.0"
"1530209357867";"-24.0"
"1530209357867";"-25.0"
"1530209357867";"-26.0"
"1530209357867";"-27.0"
"1530209357867";"-28.0"
"1530209357867";"-29.0"
"1530209357888";"-30.0"
"1530209357888";"-31.0"
"1530209357889";"-32.0"
"1530209357889";"-33.0"
"1530209357890";"-34.0"
"1530209357910";"-35.0"
"1530209357910";"-36.0"
"1530209357910";"-37.0"
"1530209357910";"-38.0"
"1530209357911";"-39.0"
"1530209357911";"-40.0"
"1530209357931";"-41.0"
"1530209357931";"-42.0"
"1530209357952";"-43.0"
"1530209357952";"-44.0"
"1530209357953";"-45.0"
"1530209357954";"-46.0"
"1530209357995";"-45.0"
"1530209357996";"-44.0"
"1530209358016";"-43.0"
"1530209358040";"-42.0"
"1530209358040";"-41.0"
"1530209358040";"-40.0"
"1530209358040";"-39.0"
"1530209358061";"-38.0"
"1530209358061";"-37.0"
"1530209358061";"-36.0"
"1530209358082";"-35.0"
"1530209358082";"-34.0"
"1530209358103";"-33.0"
"1530209358145";"-34.0"
"1530209358145";"-35.0"
"1530209358166";"-36.0"
"1530209358167";"-37.0"
"1530209358167";"-38.0"
"1530209358167";"-39.0"
"1530209358167";"-40.0"
"1530209358167";"-41.0"
"1530209358168";"-42.0"
"1530209358188";"-43.0"
"1530209358188";"-44.0"
"1530209358188";"-45.0"
"1530209358192";"-46.0"
"1530209358192";"-47.0"
"1530209358192";"-48.0"
"1530209358213";"-49.0"
"1530209358213";"-50.0"
"1530209358213";"-51.0"
"1530209358214";"-52.0"
"1530209358214";"-53.0"
"1530209358215";"-54.0"
"1530209358256";"-53.0"
"1530209358256";"-52.0"
"1530209358256";"-51.0"
"1530209358256";"-50.0"
"1530209358256";"-48.0"
"1530209358277";"-47.0"
"1530209358277";"-45.0"
"1530209358298";"-42.0"
"1530209358298";"-40.0"
"1530209358299";"-37.0"
"1530209358300";"-34.0"
"1530209358300";"-30.0"
"1530209358300";"-26.0"
"1530209358300";"-22.0"
"1530209358300";"-18.0"
"1530209358321";"-14.0"
"1530209358321";"-9.0"
"1530209358321";"-4.0"
"1530209358321";"0.0"
"1530209358321";"4.0"
"1530209358342";"9.0"
"1530209358342";"13.0"
"1530209358342";"18.0"
"1530209358342";"23.0"
"1530209358342";"27.0"
"1530209358342";"32.0"
"1530209358342";"36.0"
"1530209358343";"41.0"
"1530209358343";"45.0"
"1530209358343";"50.0"
"1530209358365";"54.0"
"1530209358365";"58.0"
"1530209358365";"62.0"
"1530209358365";"67.0"
"1530209358365";"71.0"
"1530209358386";"74.0"
"1530209358386";"78.0"
"1530209358387";"82.0"
"1530209358387";"85.0"
"1530209358387";"86.0"
"1530209358407";"87.0"
"1530209358431";"88.0"
"1530209358452";"85.0"
"1530209358452";"82.0"
"1530209358452";"79.0"
"1530209358453";"76.0"
"1530209358453";"73.0"
"1530209358453";"69.0"
"1530209358474";"66.0"
"1530209358474";"62.0"
"1530209358474";"59.0"
"1530209358474";"55.0"
"1530209358474";"51.0"
"1530209358474";"47.0"
"1530209358495";"44.0"
"1530209358496";"40.0"
"1530209358496";"36.0"
"1530209358497";"32.0"
"1530209358497";"28.0"
"1530209358497";"25.0"
"1530209358517";"21.0"
"1530209358517";"17.0"
"1530209358517";"13.0"
"1530209358518";"9.0"
"1530209358518";"5.0"
"1530209358518";"1.0"
"1530209358518";"-1.0"
"1530209358518";"-5.0"
"1530209358518";"-8.0"
"1530209358539";"-11.0"
"1530209358539";"-15.0"
"1530209358539";"-18.0"
"1530209358560";"-20.0"
"1530209358560";"-23.0"
"1530209358560";"-26.0"
"1530209358561";"-28.0"
"1530209358561";"-30.0"
"1530209358561";"-32.0"
"1530209358561";"-34.0"
"1530209358582";"-36.0"
"1530209358582";"-38.0"
"1530209358582";"-39.0"
"1530209358583";"-40.0"
"1530209358583";"-41.0"
"1530209358603";"-42.0"
"1530209358603";"-43.0"
"1530209358603";"-44.0"
"1530209358604";"-45.0"
"1530209358604";"-46.0"
"1530209358604";"-47.0"
"1530209358624";"-48.0"
"1530209358626";"-49.0"
"1530209358646";"-50.0"
"1530209358646";"-51.0"
"1530209358689";"-50.0"
"1530209358712";"-49.0"
"1530209358712";"-48.0"
"1530209358712";"-47.0"
"1530209358712";"-46.0"
"1530209358733";"-45.0"
"1530209358733";"-44.0"
"1530209358733";"-43.0"
"1530209358733";"-42.0"
"1530209358733";"-41.0"
"1530209358733";"-40.0"
"1530209358754";"-39.0"
"1530209358754";"-38.0"
"1530209358775";"-37.0"
"1530209358775";"-35.0"
"1530209358775";"-34.0"
"1530209358775";"-32.0"
"1530209358775";"-31.0"
"1530209358775";"-29.0"
"1530209358796";"-27.0"
"1530209358796";"-25.0"
"1530209358796";"-23.0"
"1530209358796";"-21.0"
"1530209358796";"-19.0"
"1530209358796";"-17.0"
"1530209358796";"-15.0"
"1530209358797";"-12.0"
"1530209358797";"-10.0"
"1530209358817";"-8.0"
"1530209358818";"-6.0"
"1530209358818";"-3.0"
"1530209358818";"-1.0"
"1530209358818";"1.0"
"1530209358818";"3.0"
"1530209358819";"6.0"
"1530209358839";"8.0"
"1530209358840";"10.0"
"1530209358840";"13.0"
"1530209358840";"15.0"
"1530209358840";"17.0"
"1530209358840";"19.0"
"1530209358861";"21.0"
"1530209358861";"22.0"
"1530209358862";"24.0"
"1530209358862";"26.0"
"1530209358862";"28.0"
"1530209358862";"29.0"
"1530209358884";"31.0"
"1530209358884";"33.0"
"1530209358884";"34.0"
"1530209358884";"36.0"
"1530209358884";"37.0"
"1530209358884";"39.0"
"1530209358905";"40.0"
"1530209358905";"42.0"
"1530209358905";"43.0"
"1530209358905";"44.0"
"1530209358905";"45.0"
"1530209358905";"47.0"
"1530209358926";"48.0"
"1530209358926";"49.0"
"1530209358926";"50.0"
"1530209358926";"51.0"
"1530209358926";"52.0"
"1530209358926";"53.0"
"1530209358947";"54.0"
"1530209358947";"55.0"
"1530209358947";"56.0"
"1530209358947";"57.0"
"1530209358947";"58.0"
"1530209358947";"59.0"
"1530209358947";"60.0"
"1530209358970";"61.0"
"1530209358970";"62.0"
"1530209358970";"63.0"
"1530209359033";"64.0"
"1530209359033";"65.0"
"1530209359054";"66.0"
"1530209359054";"67.0"
"1530209359075";"68.0"
"1530209359075";"69.0"
"1530209359075";"70.0"
"1530209359075";"71.0"
"1530209359117";"70.0"
"1530209359118";"69.0"
"1530209359138";"68.0"
"1530209359139";"67.0"
"1530209359184";"66.0"
"1530209359185";"65.0"
"1530209359185";"64.0"
"1530209359185";"63.0"
"1530209359185";"62.0"
"1530209359185";"61.0"
"1530209359206";"60.0"
"1530209359206";"59.0"
"1530209359207";"58.0"
"1530209359207";"57.0"
"1530209359207";"56.0"
"1530209359207";"55.0"
"1530209359228";"54.0"
"1530209359229";"53.0"
"1530209359229";"52.0"
"1530209359229";"51.0"
"1530209359230";"50.0"
"1530209359250";"49.0"
"1530209359251";"48.0"
"1530209359251";"47.0"
"1530209359251";"46.0"
"1530209359251";"45.0"
"1530209359251";"44.0"
"1530209359252";"43.0"
"1530209359272";"42.0"
"1530209359273";"41.0"
"1530209359273";"40.0"
"1530209359273";"39.0"
"1530209359273";"38.0"
"1530209359273";"37.0"
"1530209359294";"36.0"
"1530209359294";"35.0"
"1530209359294";"34.0"
"1530209359294";"33.0"
"1530209359294";"32.0"
"1530209359294";"31.0"
"1530209359315";"30.0"
"1530209359315";"29.0"
"1530209359315";"28.0"
"1530209359315";"27.0"
"1530209359315";"26.0"
"1530209359315";"25.0"
"1530209359315";"24.0"
"1530209359315";"23.0"
"1530209359315";"22.0"
"1530209359336";"21.0"
"1530209359336";"20.0"
"1530209359336";"19.0"
"1530209359336";"18.0"
"1530209359336";"17.0"
"1530209359357";"16.0"
"1530209359357";"15.0"
"1530209359357";"14.0"
"1530209359358";"13.0"
"1530209359358";"12.0"
"1530209359379";"11.0"
"1530209359379";"10.0"
"1530209359380";"9.0"
"1530209359380";"8.0"
"1530209359380";"7.0"
"1530209359380";"6.0"
"1530209359380";"5.0"
"1530209359401";"4.0"
"1530209359401";"3.0"
"1530209359402";"2.0"
"1530209359402";"1.0"
"1530209359402";"0.0"
"1530209359423";"-1.0"
"1530209359423";"-2.0"
"1530209359465";"-3.0"
"1530209359486";"-4.0"
"1530209359508";"-3.0"
"1530209359508";"-2.0"
"1530209359508";"-1.0"
"1530209359528";"0.0"
"1530209359529";"1.0"
"1530209359529";"2.0"
"1530209359549";"3.0"
"1530209359550";"4.0"
"1530209359550";"5.0"
"1530209359550";"6.0"
"1530209359550";"8.0"
"1530209359550";"9.0"
"1530209359570";"11.0"
"1530209359571";"13.0"
"1530209359571";"15.0"
"1530209359571";"17.0"
"1530209359592";"19.0"
"1530209359592";"22.0"
"1530209359592";"25.0"
"1530209359592";"27.0"
"1530209359592";"30.0"
"1530209359592";"33.0"
"1530209359592";"36.0"
"1530209359592";"39.0"
"1530209359592";"41.0"
"1530209359613";"44.0"
"1530209359613";"46.0"
"1530209359613";"49.0"
"1530209359614";"51.0"
"1530209359614";"53.0"
"1530209359617";"55.0"
"1530209359638";"57.0"
"1530209359638";"59.0"
"1530209359639";"60.0"
"1530209359639";"61.0"
"1530209359639";"63.0"
"1530209359640";"64.0"
"1530209359660";"65.0"
"1530209359661";"66.0"
"1530209359661";"67.0"
"1530209359661";"68.0"
"1530209359661";"69.0"
"1530209359682";"68.0"
"1530209359682";"67.0"
"1530209359702";"66.0"
"1530209359703";"65.0"
"1530209359703";"64.0"
"1530209359703";"62.0"
"1530209359703";"61.0"
"1530209359724";"60.0"
"1530209359724";"59.0"
"1530209359724";"58.0"
"1530209359724";"57.0"
"1530209359724";"56.0"
"1530209359745";"54.0"
"1530209359745";"53.0"
"1530209359745";"52.0"
"1530209359745";"51.0"
"1530209359745";"50.0"
"1530209359745";"49.0"
"1530209359745";"48.0"
"1530209359766";"47.0"
"1530209359766";"45.0"
"1530209359766";"44.0"
"1530209359767";"43.0"
"1530209359767";"42.0"
"1530209359788";"41.0"
"1530209359788";"40.0"
"1530209359788";"39.0"
"1530209359788";"38.0"
"1530209359788";"37.0"
"1530209359788";"36.0"
"1530209359788";"35.0"
"1530209359809";"34.0"
"1530209359809";"33.0"
"1530209359809";"32.0"
"1530209359832";"31.0"
"1530209359832";"32.0"
"1530209359853";"33.0"
"1530209359874";"34.0"
"1530209359874";"35.0"
"1530209359917";"34.0"
"1530209359938";"33.0"
"1530209359938";"32.0"
"1530209359938";"31.0"
"1530209359938";"30.0"
"1530209359959";"29.0"
"1530209359959";"28.0"
"1530209359960";"27.0"
"1530209359960";"25.0"
"1530209359961";"23.0"
"1530209359961";"22.0"
"1530209359961";"20.0"
"1530209359982";"18.0"
"1530209359982";"16.0"
"1530209359982";"14.0"
"1530209359983";"12.0"
"1530209359983";"10.0"
"1530209359983";"8.0"
"1530209359983";"6.0"
"1530209359983";"4.0"
"1530209359983";"2.0"
"1530209360004";"0.0"
"1530209360004";"-1.0"
"1530209360004";"-3.0"
"1530209360004";"-4.0"
"1530209360025";"-6.0"
"1530209360025";"-7.0"
"1530209360025";"-8.0"
"1530209360026";"-9.0"
"1530209360026";"-10.0"
"1530209360026";"-11.0"
"1530209360027";"-12.0"
"1530209360047";"-13.0"
"1530209360068";"-12.0"
"1530209360089";"-11.0"
"1530209360089";"-10.0"
"1530209360089";"-8.0"
"1530209360089";"-7.0"
"1530209360089";"-6.0"
"1530209360089";"-4.0"
"1530209360089";"-3.0"
"1530209360090";"-2.0"
"1530209360111";"0.0"
"1530209360111";"1.0"
"1530209360132";"2.0"
"1530209360132";"3.0"
"1530209360132";"4.0"
"1530209360133";"5.0"
"1530209360133";"6.0"
"1530209360133";"7.0"
"1530209360153";"8.0"
"1530209360154";"9.0"
"1530209360154";"10.0"
"1530209360154";"11.0"
"1530209360154";"12.0"
"1530209360154";"13.0"
"1530209360154";"14.0"
"1530209360176";"13.0"
"1530209360176";"12.0"
"1530209360197";"11.0"
"1530209360197";"10.0"
"1530209360218";"9.0"
"1530209360239";"8.0"
"1530209360260";"7.0"
"1530209360261";"6.0"
"1530209360281";"5.0"
"1530209360282";"4.0"
"1530209360282";"3.0"
"1530209360304";"2.0"
"1530209360304";"1.0"
"1530209360305";"0.0"
"1530209360305";"-1.0"
"1530209360326";"-2.0"
"1530209360327";"-3.0"
"1530209360327";"-4.0"
"1530209360348";"-5.0"
"1530209360348";"-6.0"
"1530209360348";"-7.0"
"1530209360348";"-8.0"
"1530209360371";"-9.0"
"1530209360433";"-8.0"
"1530209360455";"-7.0"
"1530209360456";"-6.0"
"1530209360456";"-5.0"
"1530209360456";"-4.0"
"1530209360477";"-3.0"
"1530209360477";"-2.0"
"1530209360477";"-1.0"
"1530209360477";"0.0"
"1530209360477";"1.0"
"1530209360477";"2.0"
"1530209360498";"3.0"
"1530209360499";"5.0"
"1530209360500";"6.0"
"1530209360500";"7.0"
"1530209360500";"9.0"
"1530209360500";"10.0"
"1530209360521";"11.0"
"1530209360521";"12.0"
"1530209360521";"13.0"
"1530209360521";"14.0"
"1530209360522";"15.0"
"1530209360542";"14.0"
"1530209360563";"13.0"
"1530209360564";"12.0"
"1530209360564";"11.0"
"1530209360565";"9.0"
"1530209360565";"8.0"
"1530209360565";"6.0"
"1530209360565";"5.0"
"1530209360586";"3.0"
"1530209360586";"1.0"
"1530209360586";"0.0"
"1530209360586";"-1.0"
"1530209360586";"-2.0"
"1530209360586";"-3.0"
"1530209360586";"-4.0"
"1530209360607";"-5.0"
"1530209360607";"-6.0"
"1530209360608";"-5.0"
"1530209360629";"-4.0"
"1530209360630";"-3.0"
"1530209360630";"-1.0"
"1530209360630";"0.0"
"1530209360651";"2.0"
"1530209360651";"4.0"
"1530209360651";"5.0"
"1530209360651";"7.0"
"1530209360651";"8.0"
"1530209360651";"10.0"
"1530209360651";"11.0"
"1530209360672";"13.0"
"1530209360672";"14.0"
"1530209360672";"16.0"
"1530209360672";"17.0"
"1530209360672";"18.0"
"1530209360693";"19.0"
"1530209360693";"21.0"
"1530209360693";"22.0"
"1530209360695";"23.0"
"1530209360695";"24.0"
"1530209360695";"25.0"
"1530209360715";"26.0"
"1530209360716";"27.0"
"1530209360716";"28.0"
"1530209360716";"29.0"
"1530209360737";"30.0"
"1530209360737";"31.0"
"1530209360780";"30.0"
"1530209360781";"29.0"
"1530209360781";"28.0"
"1530209360802";"27.0"
"1530209360802";"26.0"
"1530209360802";"25.0"
"1530209360802";"24.0"
"1530209360802";"23.0"
"1530209360803";"22.0"
"1530209360803";"21.0"
"1530209360803";"19.0"
"1530209360803";"18.0"
"1530209360824";"17.0"
"1530209360824";"15.0"
"1530209360824";"14.0"
"1530209360845";"12.0"
"1530209360845";"11.0"
"1530209360846";"9.0"
"1530209360846";"8.0"
"1530209360846";"6.0"
"1530209360846";"4.0"
"1530209360867";"2.0"
"1530209360867";"0.0"
"1530209360867";"-1.0"
"1530209360867";"-3.0"
"1530209360867";"-5.0"
"1530209360868";"-7.0"
"1530209360868";"-9.0"
"1530209360868";"-12.0"
"1530209360868";"-14.0"
"1530209360889";"-16.0"
"1530209360890";"-18.0"
"1530209360890";"-21.0"
"1530209360910";"-23.0"
"1530209360911";"-25.0"
"1530209360911";"-28.0"
"1530209360911";"-30.0"
"1530209360911";"-32.0"
"1530209360911";"-35.0"
"1530209360911";"-37.0"
"1530209360931";"-39.0"
"1530209360932";"-41.0"
"1530209360932";"-43.0"
"1530209360932";"-45.0"
"1530209360932";"-47.0"
"1530209360932";"-48.0"
"1530209360932";"-49.0"
"1530209360932";"-51.0"
"1530209360932";"-52.0"
"1530209360953";"-53.0"
"1530209360953";"-54.0"
"1530209360953";"-55.0"
"1530209360953";"-56.0"
"1530209360953";"-57.0"
"1530209360974";"-58.0"
"1530209361016";"-57.0"
"1530209361037";"-56.0"
"1530209361037";"-55.0"
"1530209361057";"-54.0"
"1530209361078";"-53.0"
"1530209361078";"-52.0"
"1530209361078";"-51.0"
"1530209361082";"-50.0"
"1530209361102";"-49.0"
"1530209361102";"-48.0"
"1530209361124";"-47.0"
"1530209361124";"-46.0"
"1530209361124";"-45.0"
"1530209361124";"-44.0"
"1530209361124";"-43.0"
"1530209361124";"-42.0"
"1530209361124";"-41.0"
"1530209361125";"-40.0"
"1530209361125";"-39.0"
"1530209361145";"-38.0"
"1530209361145";"-37.0"
"1530209361145";"-36.0"
"1530209361145";"-35.0"
"1530209361145";"-34.0"
"1530209361145";"-33.0"
"1530209361146";"-32.0"
"1530209361166";"-31.0"
"1530209361166";"-30.0"
"1530209361167";"-29.0"
"1530209361167";"-28.0"
"1530209361188";"-27.0"
"1530209361209";"-26.0"
"1530209361210";"-25.0"
"1530209361233";"-24.0"
"1530209361233";"-23.0"
"1530209361254";"-22.0"
"1530209361255";"-21.0"
"1530209361276";"-20.0"
"1530209361276";"-19.0"
"1530209361276";"-18.0"
"1530209361276";"-17.0"
"1530209361276";"-16.0"
"1530209361299";"-15.0"
"1530209361300";"-14.0"
"1530209361301";"-13.0"
"1530209361301";"-12.0"
"1530209361322";"-11.0"
"1530209361322";"-10.0"
"1530209361323";"-9.0"
"1530209361343";"-10.0"
"1530209361364";"-11.0"
"1530209361365";"-12.0"
"1530209361386";"-11.0"
"1530209361387";"-10.0"
"1530209361407";"-9.0"
"1530209361408";"-8.0"
"1530209361408";"-7.0"
"1530209361408";"-6.0"
"1530209361429";"-5.0"
"1530209361429";"-4.0"
"1530209361430";"-3.0"
"1530209361431";"-2.0"
"1530209361472";"-1.0"
"1530209361472";"0.0"
"1530209361493";"1.0"
"1530209361494";"3.0"
"1530209361514";"4.0"
"1530209361514";"6.0"
"1530209361515";"8.0"
"1530209361515";"10.0"
"1530209361515";"12.0"
"1530209361515";"14.0"
"1530209361515";"17.0"
"1530209361515";"19.0"
"1530209361515";"21.0"
"1530209361536";"23.0"
"1530209361536";"26.0"
"1530209361536";"28.0"
"1530209361536";"30.0"
"1530209361536";"32.0"
"1530209361536";"34.0"
"1530209361536";"36.0"
"1530209361536";"37.0"
"1530209361537";"39.0"
"1530209361558";"40.0"
"1530209361559";"42.0"
"1530209361559";"43.0"
"1530209361580";"44.0"
"1530209361580";"45.0"
"1530209361580";"47.0"
"1530209361580";"48.0"
"1530209361580";"49.0"
"1530209361580";"50.0"
"1530209361580";"51.0"
"1530209361603";"52.0"
"1530209361624";"51.0"
"1530209361625";"50.0"
"1530209361626";"49.0"
"1530209361646";"48.0"
"1530209361647";"47.0"
"1530209361647";"46.0"
"1530209361647";"45.0"
"1530209361647";"44.0"
"1530209361667";"42.0"
"1530209361668";"41.0"
"1530209361668";"40.0"
"1530209361668";"38.0"
"1530209361668";"37.0"
"1530209361668";"35.0"
"1530209361668";"33.0"
"1530209361689";"31.0"
"1530209361689";"29.0"
"1530209361689";"27.0"
"1530209361689";"25.0"
"1530209361690";"23.0"
"1530209361711";"21.0"
"1530209361711";"19.0"
"1530209361711";"16.0"
"1530209361711";"14.0"
"1530209361711";"12.0"
"1530209361712";"10.0"
"1530209361712";"7.0"
"1530209361712";"5.0"
"1530209361733";"3.0"
"1530209361733";"1.0"
"1530209361733";"0.0"
"1530209361754";"-2.0"
"1530209361754";"-4.0"
"1530209361754";"-6.0"
"1530209361754";"-8.0"
"1530209361754";"-10.0"
"1530209361755";"-11.0"
"1530209361755";"-13.0"
"1530209361755";"-15.0"
"1530209361755";"-16.0"
"1530209361755";"-18.0"
"1530209361755";"-19.0"
"1530209361755";"-20.0"
"1530209361777";"-21.0"
"1530209361777";"-23.0"
"1530209361777";"-24.0"
"1530209361777";"-25.0"
"1530209361798";"-26.0"
"1530209361798";"-27.0"
"1530209361798";"-28.0"
"1530209361798";"-29.0"
"1530209361799";"-30.0"
"1530209361819";"-31.0"
"1530209361840";"-32.0"
"1530209361861";"-31.0"
"1530209361882";"-30.0"
"1530209361882";"-29.0"
"1530209361905";"-30.0"
"1530209361948";"-31.0"
"1530209361948";"-32.0"
"1530209361948";"-33.0"
"1530209361948";"-34.0"
"1530209361949";"-35.0"
"1530209361970";"-36.0"
"1530209361970";"-37.0"
"1530209361970";"-38.0"
"1530209361970";"-39.0"
"1530209361970";"-40.0"
"1530209361991";"-41.0"
"1530209361991";"-42.0"
"1530209361991";"-43.0"
"1530209361991";"-44.0"
"1530209361991";"-45.0"
"1530209361991";"-46.0"
"1530209362012";"-47.0"
"1530209362012";"-48.0"
"1530209362012";"-49.0"
"1530209362012";"-50.0"
"1530209362032";"-51.0"
"1530209362053";"-50.0"
"1530209362054";"-49.0"
"1530209362054";"-48.0"
"1530209362074";"-47.0"
"1530209362075";"-46.0"
"1530209362075";"-45.0"
"1530209362075";"-44.0"
"1530209362075";"-43.0"
"1530209362108";"-42.0"
"1530209362108";"-40.0"
"1530209362108";"-39.0"
"1530209362110";"-37.0"
"1530209362131";"-36.0"
"1530209362131";"-34.0"
"1530209362131";"-32.0"
"1530209362131";"-30.0"
"1530209362131";"-28.0"
"1530209362131";"-26.0"
"1530209362131";"-24.0"
"1530209362131";"-21.0"
"1530209362132";"-19.0"
"1530209362132";"-16.0"
"1530209362132";"-14.0"
"1530209362132";"-11.0"
"1530209362153";"-9.0"
"1530209362153";"-6.0"
"1530209362153";"-4.0"
"1530209362153";"-2.0"
"1530209362174";"0.0"
"1530209362174";"2.0"
"1530209362174";"4.0"
"1530209362174";"6.0"
"1530209362174";"7.0"
"1530209362174";"9.0"
"1530209362174";"11.0"
"1530209362175";"13.0"
"1530209362175";"14.0"
"1530209362175";"16.0"
"1530209362175";"17.0"
"1530209362195";"19.0"
"1530209362196";"20.0"
"1530209362196";"21.0"
"1530209362196";"23.0"
"1530209362196";"24.0"
"1530209362196";"25.0"
"1530209362217";"26.0"
"1530209362218";"27.0"
"1530209362218";"28.0"
"1530209362218";"29.0"
"1530209362218";"30.0"
"1530209362240";"31.0"
"1530209362240";"32.0"
"1530209362261";"33.0"
"1530209362282";"32.0"
"1530209362283";"31.0"
"1530209362305";"30.0"
"1530209362306";"29.0"
"1530209362306";"28.0"
"1530209362347";"29.0"
"1530209362347";"30.0"
"1530209362347";"31.0"
"1530209362369";"32.0"
"1530209362369";"33.0"
"1530209362370";"34.0"
"1530209362370";"35.0"
"1530209362370";"36.0"
"1530209362391";"37.0"
"1530209362391";"38.0"
"1530209362391";"39.0"
"1530209362392";"40.0"
"1530209362412";"41.0"
"1530209362435";"42.0"
"1530209362456";"41.0"
"1530209362456";"40.0"
"1530209362456";"39.0"
"1530209362456";"38.0"
"1530209362477";"37.0"
"1530209362477";"36.0"
"1530209362477";"35.0"
"1530209362477";"34.0"
"1530209362499";"33.0"
"1530209362499";"32.0"
"1530209362519";"31.0"
"1530209362520";"30.0"
"1530209362520";"29.0"
"1530209362520";"28.0"
"1530209362520";"27.0"
"1530209362540";"26.0"
"1530209362541";"25.0"
"1530209362541";"24.0"
"1530209362541";"23.0"
"1530209362541";"22.0"
"1530209362541";"21.0"
"1530209362541";"20.0"
"1530209362562";"19.0"
"1530209362562";"18.0"
"1530209362562";"17.0"
"1530209362563";"16.0"
"1530209362563";"15.0"
"1530209362563";"14.0"
"1530209362563";"13.0"
"1530209362584";"12.0"
"1530209362584";"11.0"
"1530209362584";"10.0"
"1530209362584";"9.0"
"1530209362584";"8.0"
"1530209362605";"7.0"
"1530209362605";"6.0"
"1530209362605";"5.0"
"1530209362606";"4.0"
"1530209362606";"3.0"
"1530209362606";"2.0"
"1530209362606";"1.0"
"1530209362606";"0.0"
"1530209362627";"-1.0"
"1530209362648";"-2.0"
"1530209362648";"-3.0"
"1530209362648";"-4.0"
"1530209362648";"-5.0"
"1530209362648";"-6.0"
"1530209362669";"-7.0"
"1530209362690";"-6.0"
"1530209362713";"-5.0"
"1530209362733";"-4.0"
"1530209362734";"-3.0"
"1530209362754";"-2.0"
"1530209362776";"-1.0"
"1530209362776";"0.0"
"1530209362944";"1.0"
"1530209362968";"2.0"
"1530209362968";"3.0"
"1530209362968";"4.0"
"1530209362969";"5.0"
"1530209362989";"6.0"
"1530209362989";"7.0"
"1530209363010";"8.0"
"1530209363032";"9.0"
"1530209363064";"10.0"
"1530209363085";"9.0"
"1530209363121";"8.0"
"1530209363142";"7.0"
"1530209363142";"6.0"
"1530209363142";"5.0"
"1530209363163";"4.0"
"1530209363163";"3.0"
"1530209363163";"2.0"
"1530209363164";"1.0"
"1530209363165";"0.0"
"1530209363185";"-1.0"
"1530209363185";"-2.0"
"1530209363186";"-3.0"
"1530209363186";"-4.0"
"1530209363206";"-5.0"
"1530209363207";"-6.0"
"1530209363207";"-7.0"
"1530209363228";"-6.0"
"1530209363229";"-5.0"
"1530209363250";"-4.0"
"1530209363250";"-3.0"
"1530209363250";"-2.0"
"1530209363250";"-1.0"
"1530209363250";"0.0"
"1530209363250";"1.0"
"1530209363271";"2.0"
"1530209363271";"3.0"
"1530209363292";"4.0"
"1530209363293";"5.0"
"1530209363314";"6.0"
"1530209363356";"5.0"
"1530209363377";"4.0"
"1530209363377";"3.0"
"1530209363398";"2.0"
"1530209363398";"1.0"
"1530209363398";"0.0"
"1530209363419";"-1.0"
"1530209363419";"-2.0"
"1530209363419";"-3.0"
"1530209363420";"-4.0"
"1530209363421";"-5.0"
"1530209363441";"-6.0"
"1530209363442";"-7.0"
"1530209363442";"-8.0"
"1530209363442";"-9.0"
"1530209363442";"-10.0"
"1530209363442";"-11.0"
"1530209363442";"-12.0"
"1530209363442";"-13.0"
"1530209363463";"-14.0"
"1530209363463";"-15.0"
"1530209363463";"-16.0"
"1530209363463";"-17.0"
"1530209363463";"-18.0"
"1530209363464";"-19.0"
"1530209363484";"-20.0"
"1530209363507";"-19.0"
"1530209363528";"-18.0"
"1530209363528";"-17.0"
"1530209363528";"-16.0"
"1530209363549";"-15.0"
"1530209363549";"-14.0"
"1530209363549";"-13.0"
"1530209363571";"-12.0"
"1530209363572";"-11.0"
"1530209363572";"-10.0"
"1530209363592";"-9.0"
"1530209363593";"-8.0"
"1530209363593";"-7.0"
"1530209363593";"-6.0"
"1530209363614";"-5.0"
"1530209363614";"-4.0"
"1530209363614";"-3.0"
"1530209363614";"-2.0"
"1530209363635";"-1.0"
"1530209363635";"0.0"
"1530209363635";"1.0"
"1530209363656";"2.0"
"1530209363656";"3.0"
"1530209363657";"4.0"
"1530209363658";"5.0"
"1530209363658";"6.0"
"1530209363678";"7.0"
"1530209363678";"8.0"
"1530209363679";"9.0"
"1530209363679";"10.0"
"1530209363679";"11.0"
"1530209363701";"12.0"
"1530209363701";"13.0"
"1530209363701";"14.0"
"1530209363701";"15.0"
"1530209363701";"16.0"
"1530209363701";"17.0"
"1530209363722";"18.0"
"1530209363722";"19.0"
"1530209363722";"20.0"
"1530209363722";"21.0"
"1530209363743";"22.0"
"1530209363743";"23.0"
"1530209363743";"24.0"
"1530209363764";"25.0"
"1530209363796";"24.0"
"1530209363796";"23.0"
"1530209363817";"22.0"
"1530209363820";"21.0"
"1530209363820";"20.0"
"1530209363820";"19.0"
"1530209363841";"18.0"
"1530209363842";"17.0"
"1530209363842";"16.0"
"1530209363842";"15.0"
"1530209363842";"14.0"
"1530209363842";"13.0"
"1530209363862";"12.0"
"1530209363863";"11.0"
"1530209363863";"10.0"
"1530209363883";"9.0"
"1530209363884";"8.0"
"1530209363884";"7.0"
"1530209363884";"6.0"
"1530209363885";"5.0"
"1530209363906";"4.0"
"1530209363907";"3.0"
"1530209363907";"2.0"
"1530209363927";"1.0"
"1530209363928";"0.0"
"1530209363928";"-1.0"
"1530209363949";"-2.0"
"1530209363949";"-3.0"
"1530209363949";"-4.0"
"1530209363949";"-5.0"
"1530209363949";"-6.0"
"1530209363971";"-7.0"
"1530209363972";"-8.0"
"1530209363972";"-9.0"
"1530209363993";"-10.0"
"1530209363993";"-11.0"
"1530209363993";"-12.0"
"1530209363993";"-13.0"
"1530209364014";"-14.0"
"1530209364014";"-15.0"
"1530209364014";"-16.0"
"1530209364035";"-17.0"
"1530209364078";"-18.0"
"1530209364099";"-17.0"
"1530209364146";"-16.0"
"1530209364148";"-15.0"
"1530209364149";"-14.0"
"1530209364149";"-13.0"
"1530209364150";"-12.0"
"1530209364150";"-11.0"
"1530209364150";"-10.0"
"1530209364150";"-9.0"
"1530209364171";"-8.0"
"1530209364171";"-6.0"
"1530209364171";"-5.0"
"1530209364171";"-3.0"
"1530209364171";"-1.0"
"1530209364172";"0.0"
"1530209364172";"1.0"
"1530209364172";"3.0"
"1530209364172";"4.0"
"1530209364172";"6.0"
"1530209364172";"8.0"
"1530209364172";"9.0"
"1530209364172";"11.0"
"1530209364172";"12.0"
"1530209364172";"13.0"
"1530209364172";"15.0"
"1530209364172";"16.0"
"1530209364173";"17.0"
"1530209364193";"18.0"
"1530209364193";"20.0"
"1530209364194";"21.0"
"1530209364194";"22.0"
"1530209364214";"23.0"
"1530209364215";"24.0"
"1530209364215";"25.0"
"1530209364215";"26.0"
"1530209364236";"27.0"
"1530209364236";"28.0"
"1530209364237";"29.0"
"1530209364258";"28.0"
"1530209364279";"27.0"
"1530209364279";"26.0"
"1530209364279";"25.0"
"1530209364306";"24.0"
"1530209364306";"23.0"
"1530209364327";"22.0"
"1530209364327";"21.0"
"1530209364348";"20.0"
"1530209364369";"19.0"
"1530209364370";"18.0"
"1530209364370";"17.0"
"1530209364390";"16.0"
"1530209364391";"15.0"
"1530209364391";"14.0"
"1530209364411";"13.0"
"1530209364412";"12.0"
"1530209364453";"13.0"
"1530209364474";"14.0"
"1530209364474";"15.0"
"1530209364494";"16.0"
"1530209364495";"17.0"
"1530209364515";"18.0"
"1530209364515";"19.0"
"1530209364560";"18.0"
"1530209364581";"17.0"
"1530209364581";"16.0"
"1530209364581";"15.0"
"1530209364581";"14.0"
"1530209364602";"13.0"
"1530209364602";"12.0"
"1530209364602";"11.0"
"1530209364602";"10.0"
"1530209364623";"9.0"
"1530209364623";"8.0"
"1530209364623";"7.0"
"1530209364624";"6.0"
"1530209364624";"5.0"
"1530209364645";"4.0"
"1530209364645";"3.0"
"1530209364645";"2.0"
"1530209364666";"1.0"
"1530209364666";"0.0"
"1530209364687";"-1.0"
"1530209364689";"-2.0"
"1530209364710";"-3.0"
"1530209364710";"-4.0"
"1530209364751";"-5.0"
"1530209364793";"-4.0"
"1530209364814";"-3.0"
"1530209364814";"-2.0"
"1530209364835";"-1.0"
"1530209364835";"0.0"
"1530209364836";"1.0"
"1530209364837";"2.0"
"1530209364837";"3.0"
"1530209364837";"4.0"
"1530209364857";"5.0"
"1530209364858";"6.0"
"1530209364858";"7.0"
"1530209364858";"8.0"
"1530209364858";"9.0"
"1530209364879";"10.0"
"1530209364879";"11.0"
"1530209364879";"12.0"
"1530209364879";"13.0"
"1530209364900";"14.0"
"1530209364902";"15.0"
"1530209364902";"16.0"
"1530209364902";"17.0"
"1530209364902";"18.0"
"1530209364923";"19.0"
"1530209364923";"20.0"
"1530209364923";"21.0"
"1530209364944";"22.0"
"1530209364944";"23.0"
"1530209364965";"24.0"
"1530209365008";"23.0"
"1530209365014";"22.0"
"1530209365035";"21.0"
"1530209365037";"20.0"
"1530209365038";"19.0"
"1530209365061";"18.0"
"1530209365081";"17.0"
"1530209365081";"16.0"
"1530209365102";"15.0"
"1530209365102";"14.0"
"1530209365102";"13.0"
"1530209365103";"12.0"
"1530209365103";"11.0"
"1530209365124";"10.0"
"1530209365124";"9.0"
"1530209365165";"10.0"
"1530209365168";"11.0"
"1530209365189";"12.0"
"1530209365210";"13.0"
"1530209365232";"12.0"
"1530209365253";"11.0"
"1530209365253";"10.0"
"1530209365253";"9.0"
"1530209365274";"8.0"
"1530209365274";"7.0"
"1530209365295";"6.0"
"1530209365296";"5.0"
"1530209365296";"4.0"
"1530209365317";"3.0"
"1530209365338";"2.0"
"1530209365422";"1.0"
"1530209365464";"0.0"
"1530209365464";"1.0"
"1530209365464";"0.0"
"1530209365464";"-1.0"
"1530209365485";"-2.0"
"1530209365485";"-3.0"
"1530209365506";"-4.0"
"1530209365527";"-3.0"
"1530209365548";"-2.0"
"1530209365548";"-1.0"
"1530209365569";"0.0"
"1530209365569";"1.0"
"1530209365569";"2.0"
"1530209365570";"3.0"
"1530209365590";"4.0"
"1530209365591";"5.0"
"1530209365591";"6.0"
"1530209365632";"5.0"
"1530209365632";"4.0"
"1530209365632";"3.0"
"1530209365632";"2.0"
"1530209365632";"1.0"
"1530209365653";"0.0"
"1530209365653";"-1.0"
"1530209365653";"-2.0"
"1530209365654";"-4.0"
"1530209365654";"-5.0"
"1530209365674";"-6.0"
"1530209365674";"-8.0"
"1530209365675";"-9.0"
"1530209365675";"-11.0"
"1530209365675";"-12.0"
"1530209365675";"-14.0"
"1530209365675";"-15.0"
"1530209365675";"-17.0"
"1530209365676";"-19.0"
"1530209365696";"-20.0"
"1530209365697";"-22.0"
"1530209365697";"-24.0"
"1530209365697";"-26.0"
"1530209365697";"-27.0"
"1530209365718";"-29.0"
"1530209365718";"-31.0"
"1530209365718";"-32.0"
"1530209365718";"-34.0"
"1530209365718";"-35.0"
"1530209365719";"-37.0"
"1530209365719";"-38.0"
"1530209365740";"-40.0"
"1530209365740";"-41.0"
"1530209365740";"-42.0"
"1530209365740";"-43.0"
"1530209365740";"-44.0"
"1530209365740";"-45.0"
"1530209365761";"-46.0"
"1530209365761";"-47.0"
"1530209365762";"-48.0"
"1530209365762";"-49.0"
"1530209365783";"-50.0"
"1530209365783";"-51.0"
"1530209365783";"-52.0"
"1530209365783";"-53.0"
"1530209365805";"-54.0"
"1530209365826";"-53.0"
"1530209365828";"-52.0"
"1530209365849";"-51.0"
"1530209365850";"-50.0"
"1530209365850";"-49.0"
"1530209365850";"-48.0"
"1530209365850";"-47.0"
"1530209365850";"-46.0"
"1530209365871";"-45.0"
"1530209365871";"-44.0"
"1530209365892";"-43.0"
"1530209365892";"-42.0"
"1530209365892";"-41.0"
"1530209365892";"-40.0"
"1530209365893";"-39.0"
"1530209365914";"-38.0"
"1530209365914";"-37.0"
"1530209365956";"-38.0"
"1530209365959";"-37.0"
"1530209365980";"-36.0"
"1530209365980";"-35.0"
"1530209365980";"-34.0"
"1530209365981";"-33.0"
"1530209366001";"-32.0"
"1530209366002";"-31.0"
"1530209366002";"-30.0"
"1530209366002";"-29.0"
"1530209366022";"-27.0"
"1530209366023";"-26.0"
"1530209366023";"-25.0"
"1530209366023";"-24.0"
"1530209366023";"-23.0"
"1530209366023";"-21.0"
"1530209366024";"-20.0"
"1530209366045";"-19.0"
"1530209366045";"-17.0"
"1530209366045";"-16.0"
"1530209366045";"-15.0"
"1530209366045";"-14.0"
"1530209366045";"-12.0"
"1530209366114";"-11.0"
"1530209366115";"-10.0"
"1530209366115";"-9.0"
"1530209366135";"-7.0"
"1530209366136";"-6.0"
"1530209366136";"-5.0"
"1530209366136";"-4.0"
"1530209366136";"-3.0"
"1530209366136";"-2.0"
"1530209366136";"-1.0"
"1530209366136";"0.0"
"1530209366136";"1.0"
"1530209366137";"2.0"
"1530209366158";"3.0"
"1530209366158";"4.0"
"1530209366158";"5.0"
"1530209366158";"6.0"
"1530209366158";"7.0"
"1530209366158";"6.0"
"1530209366159";"5.0"
"1530209366160";"4.0"
"1530209366180";"3.0"
"1530209366181";"2.0"
"1530209366201";"1.0"
"1530209366201";"0.0"
"1530209366202";"-1.0"
"1530209366222";"-2.0"
"1530209366223";"-3.0"
"1530209366224";"-4.0"
"1530209366245";"-5.0"
"1530209366245";"-6.0"
"1530209366245";"-7.0"
"1530209366245";"-8.0"
"1530209366245";"-9.0"
"1530209366266";"-10.0"
"1530209366266";"-11.0"
"1530209366266";"-12.0"
"1530209366266";"-13.0"
"1530209366287";"-14.0"
"1530209366287";"-15.0"
"1530209366287";"-16.0"
"1530209366308";"-17.0"
"1530209366370";"-16.0"
"1530209366391";"-15.0"
"1530209366391";"-14.0"
"1530209366391";"-13.0"
"1530209366391";"-12.0"
"1530209366412";"-11.0"
"1530209366412";"-10.0"
"1530209366413";"-9.0"
"1530209366413";"-8.0"
"1530209366413";"-7.0"
"1530209366433";"-6.0"
"1530209366433";"-5.0"
"1530209366434";"-4.0"
"1530209366434";"-3.0"
"1530209366454";"-2.0"
"1530209366455";"-1.0"
"1530209366455";"0.0"
"1530209366455";"1.0"
"1530209366476";"2.0"
"1530209366476";"3.0"
"1530209366497";"4.0"
"1530209366497";"5.0"
"1530209366498";"6.0"
"1530209366519";"7.0"
"1530209366540";"8.0"
"1530209366540";"7.0"
"1530209366582";"6.0"
"1530209366582";"5.0"
"1530209366582";"4.0"
"1530209366582";"3.0"
"1530209366582";"2.0"
"1530209366583";"1.0"
"1530209366603";"0.0"
"1530209366603";"-1.0"
"1530209366603";"-2.0"
"1530209366604";"-3.0"
"1530209366604";"-4.0"
"1530209366624";"-5.0"
"1530209366624";"-6.0"
"1530209366625";"-7.0"
"1530209366626";"-8.0"
"1530209366647";"-9.0"
"1530209366647";"-10.0"
"1530209366647";"-11.0"
"1530209366647";"-12.0"
"1530209366647";"-13.0"
"1530209366647";"-14.0"
"1530209366647";"-15.0"
"1530209366668";"-16.0"
"1530209366668";"-17.0"
"1530209366668";"-18.0"
"1530209366668";"-19.0"
"1530209366668";"-20.0"
"1530209366689";"-21.0"
"1530209366690";"-22.0"
"1530209366690";"-23.0"
"1530209366690";"-24.0"
"1530209366690";"-25.0"
"1530209366692";"-26.0"
"1530209366713";"-27.0"
"1530209366714";"-28.0"
"1530209366714";"-29.0"
"1530209366714";"-30.0"
"1530209366714";"-31.0"
"1530209366715";"-32.0"
"1530209366736";"-33.0"
"1530209366736";"-34.0"
"1530209366737";"-35.0"
"1530209366757";"-34.0"
"1530209366757";"-33.0"
"1530209366758";"-32.0"
"1530209366759";"-31.0"
"1530209366759";"-30.0"
"1530209366779";"-29.0"
"1530209366780";"-28.0"
"1530209366780";"-27.0"
"1530209366800";"-26.0"
"1530209366800";"-25.0"
"1530209366800";"-24.0"
"1530209366801";"-23.0"
"1530209366801";"-22.0"
"1530209366821";"-21.0"
"1530209366821";"-19.0"
"1530209366821";"-18.0"
"1530209366821";"-16.0"
"1530209366821";"-15.0"
"1530209366822";"-13.0"
"1530209366843";"-12.0"
"1530209366843";"-10.0"
"1530209366844";"-9.0"
"1530209366844";"-7.0"
"1530209366844";"-6.0"
"1530209366844";"-5.0"
"1530209366844";"-4.0"
"1530209366864";"-3.0"
"1530209366865";"-2.0"
"1530209366865";"0.0"
"1530209366885";"1.0"
"1530209366886";"2.0"
"1530209366886";"4.0"
"1530209366886";"5.0"
"1530209366886";"6.0"
"1530209366886";"7.0"
"1530209366907";"9.0"
"1530209366908";"10.0"
"1530209366908";"11.0"
"1530209366909";"12.0"
"1530209366909";"13.0"
"1530209366909";"14.0"
"1530209366909";"15.0"
"1530209366930";"14.0"
"1530209366930";"13.0"
"1530209366950";"12.0"
"1530209366951";"11.0"
"1530209366951";"10.0"
"1530209366972";"9.0"
"1530209366973";"8.0"
"1530209366973";"7.0"
"1530209366973";"6.0"
"1530209366993";"5.0"
"1530209366993";"4.0"
"1530209366993";"3.0"
"1530209366993";"2.0"
"1530209366994";"1.0"
"1530209367014";"0.0"
"1530209367014";"-1.0"
"1530209367014";"-2.0"
"1530209367035";"-3.0"
"1530209367037";"-4.0"
"1530209367037";"-5.0"
"1530209367060";"-6.0"
"1530209367060";"-7.0"
"1530209367103";"-8.0"
"1530209367175";"-7.0"
"1530209367176";"-6.0"
"1530209367196";"-5.0"
"1530209367217";"-4.0"
"1530209367217";"-3.0"
"1530209367238";"-2.0"
"1530209367240";"-1.0"
"1530209367240";"0.0"
"1530209367261";"1.0"
"1530209367261";"2.0"
"1530209367261";"3.0"
"1530209367261";"4.0"
"1530209367282";"5.0"
"1530209367282";"6.0"
"1530209367303";"7.0"
"1530209367304";"8.0"
"1530209367304";"9.0"
"1530209367305";"10.0"
"1530209367325";"11.0"
"1530209367346";"12.0"
"1530209367389";"11.0"
"1530209367389";"10.0"
"1530209367430";"9.0"
"1530209367431";"8.0"
"1530209367452";"7.0"
"1530209367453";"6.0"
"1530209367453";"5.0"
"1530209367473";"4.0"
"1530209367474";"3.0"
"1530209367474";"2.0"
"1530209367474";"1.0"
"1530209367494";"0.0"
"1530209367516";"-1.0"
"1530209367517";"-2.0"
"1530209367517";"-3.0"
"1530209367517";"-4.0"
"1530209367540";"-5.0"
"1530209367540";"-6.0"
"1530209367540";"-7.0"
"1530209367561";"-8.0"
"1530209367561";"-9.0"
"1530209367563";"-10.0"
"1530209367584";"-11.0"
"1530209367584";"-12.0"
"1530209367626";"-13.0"
"1530209367648";"-14.0"
"1530209367689";"-13.0"
"1530209367711";"-12.0"
"1530209367732";"-11.0"
"1530209367815";"-12.0"
"1530209367860";"-13.0"
"1530209367880";"-14.0"
"1530209367944";"-13.0"
"1530209367965";"-12.0"
"1530209367966";"-11.0"
"1530209367966";"-10.0"
"1530209367966";"-9.0"
"1530209367987";"-8.0"
"1530209368008";"-7.0"
"1530209368008";"-6.0"
"1530209368009";"-5.0"
"1530209368009";"-4.0"
"1530209368009";"-3.0"
"1530209368009";"-2.0"
"1530209368029";"-1.0"
"1530209368031";"0.0"
"1530209368031";"1.0"
"1530209368073";"2.0"
"1530209368094";"3.0"
"1530209368094";"4.0"
"1530209368115";"5.0"
"1530209368115";"6.0"
"1530209368118";"7.0"
"1530209368141";"8.0"
"1530209368168";"9.0"
"1530209368169";"10.0"
"1530209368169";"11.0"
"1530209368212";"10.0"
"1530209368234";"9.0"
"1530209368234";"8.0"
"1530209368234";"7.0"
"1530209368255";"6.0"
"1530209368276";"5.0"
"1530209368298";"4.0"
"1530209368340";"3.0"
"1530209368340";"2.0"
"1530209368361";"1.0"
"1530209368381";"0.0"
"1530209368382";"-1.0"
"1530209368382";"-2.0"
"1530209368382";"-3.0"
"1530209368402";"-4.0"
"1530209368402";"-5.0"
"1530209368403";"-6.0"
"1530209368403";"-7.0"
"1530209368423";"-8.0"
"1530209368423";"-9.0"
"1530209368424";"-10.0"
"1530209368424";"-11.0"
"1530209368445";"-12.0"
"1530209368446";"-13.0"
"1530209368446";"-14.0"
"1530209368446";"-15.0"
"1530209368467";"-16.0"
"1530209368467";"-17.0"
"1530209368468";"-18.0"
"1530209368488";"-19.0"
"1530209368489";"-20.0"
"1530209368511";"-21.0"
"1530209368531";"-22.0"
"1530209368531";"-23.0"
"1530209368552";"-24.0"
"1530209368552";"-25.0"
"1530209368573";"-26.0"
"1530209368594";"-27.0"
"1530209368638";"-28.0"
"1530209368638";"-27.0"
"1530209368659";"-26.0"
"1530209368659";"-25.0"
"1530209368660";"-24.0"
"1530209368680";"-23.0"
"1530209368680";"-22.0"
"1530209368701";"-21.0"
"1530209368701";"-20.0"
"1530209368701";"-19.0"
"1530209368701";"-18.0"
"1530209368722";"-17.0"
"1530209368722";"-16.0"
"1530209368722";"-15.0"
"1530209368723";"-14.0"
"1530209368743";"-13.0"
"1530209368744";"-12.0"
"1530209368744";"-11.0"
"1530209368744";"-10.0"
"1530209368744";"-9.0"
"1530209368744";"-8.0"
"1530209368744";"-7.0"
"1530209368765";"-5.0"
"1530209368766";"-4.0"
"1530209368768";"-3.0"
"1530209368769";"-2.0"
"1530209368769";"-1.0"
"1530209368769";"0.0"
"1530209368790";"1.0"
"1530209368790";"2.0"
"1530209368791";"3.0"
"1530209368791";"4.0"
"1530209368791";"5.0"
"1530209368792";"6.0"
"1530209368812";"7.0"
"1530209368835";"6.0"
"1530209368855";"5.0"
"1530209368855";"4.0"
"1530209368855";"3.0"
"1530209368855";"2.0"
"1530209368856";"1.0"
"1530209368876";"0.0"
"1530209368876";"-1.0"
"1530209368876";"-2.0"
"1530209368876";"-3.0"
"1530209368898";"-4.0"
"1530209368898";"-5.0"
"1530209368898";"-6.0"
"1530209368898";"-7.0"
"1530209368898";"-9.0"
"1530209368919";"-10.0"
"1530209368919";"-12.0"
"1530209368919";"-13.0"
"1530209368919";"-14.0"
"1530209368919";"-16.0"
"1530209368919";"-18.0"
"1530209368919";"-19.0"
"1530209368940";"-21.0"
"1530209368940";"-23.0"
"1530209368940";"-24.0"
"1530209368961";"-26.0"
"1530209368961";"-28.0"
"1530209368961";"-30.0"
"1530209368961";"-32.0"
"1530209368962";"-33.0"
"1530209368962";"-35.0"
"1530209368962";"-37.0"
"1530209368962";"-39.0"
"1530209368962";"-41.0"
"1530209368962";"-43.0"
"1530209368983";"-45.0"
"1530209368983";"-46.0"
"1530209368983";"-48.0"
"1530209368983";"-50.0"
"1530209368983";"-52.0"
"1530209369004";"-53.0"
"1530209369004";"-55.0"
"1530209369004";"-57.0"
"1530209369025";"-58.0"
"1530209369025";"-60.0"
"1530209369025";"-62.0"
"1530209369025";"-63.0"
"1530209369025";"-65.0"
"1530209369026";"-66.0"
"1530209369026";"-68.0"
"1530209369027";"-69.0"
"1530209369027";"-70.0"
"1530209369027";"-72.0"
"1530209369047";"-73.0"
"1530209369048";"-74.0"
"1530209369048";"-75.0"
"1530209369048";"-76.0"
"1530209369048";"-78.0"
"1530209369048";"-79.0"
"1530209369048";"-80.0"
"1530209369048";"-81.0"
"1530209369113";"-82.0"
"1530209369113";"-83.0"
"1530209369113";"-84.0"
"1530209369136";"-85.0"
"1530209369137";"-86.0"
"1530209369157";"-87.0"
"1530209369159";"-88.0"
"1530209369159";"-89.0"
"1530209369159";"-90.0"
"1530209369159";"-89.0"
"1530209369181";"-88.0"
"1530209369181";"-87.0"
"1530209369182";"-86.0"
"1530209369182";"-85.0"
"1530209369202";"-84.0"
"1530209369203";"-83.0"
"1530209369203";"-82.0"
"1530209369203";"-81.0"
"1530209369203";"-79.0"
"1530209369224";"-77.0"
"1530209369224";"-76.0"
"1530209369224";"-74.0"
"1530209369224";"-72.0"
"1530209369224";"-69.0"
"1530209369224";"-67.0"
"1530209369225";"-65.0"
"1530209369226";"-62.0"
"1530209369226";"-59.0"
"1530209369226";"-57.0"
"1530209369247";"-54.0"
"1530209369247";"-51.0"
"1530209369247";"-49.0"
"1530209369268";"-46.0"
"1530209369268";"-44.0"
"1530209369268";"-41.0"
"1530209369268";"-38.0"
"1530209369268";"-36.0"
"1530209369268";"-33.0"
"1530209369269";"-31.0"
"1530209369269";"-28.0"
"1530209369269";"-26.0"
"1530209369290";"-24.0"
"1530209369290";"-21.0"
"1530209369290";"-19.0"
"1530209369290";"-17.0"
"1530209369293";"-15.0"
"1530209369313";"-13.0"
"1530209369314";"-11.0"
"1530209369314";"-9.0"
"1530209369314";"-7.0"
"1530209369314";"-6.0"
"1530209369314";"-4.0"
"1530209369314";"-2.0"
"1530209369314";"-1.0"
"1530209369315";"0.0"
"1530209369315";"1.0"
"1530209369335";"2.0"
"1530209369336";"3.0"
"1530209369356";"5.0"
"1530209369357";"6.0"
"1530209369357";"7.0"
"1530209369357";"8.0"
"1530209369357";"9.0"
"1530209369357";"10.0"
"1530209369358";"11.0"
"1530209369379";"12.0"
"1530209369379";"13.0"
"1530209369400";"14.0"
"1530209369441";"13.0"
"1530209369462";"12.0"
"1530209369483";"11.0"
"1530209369483";"10.0"
"1530209369483";"9.0"
"1530209369506";"8.0"
"1530209369506";"7.0"
"1530209369528";"6.0"
"1530209369549";"7.0"
"1530209369570";"8.0"
"1530209369591";"9.0"
"1530209369592";"10.0"
"1530209369592";"11.0"
"1530209369592";"12.0"
"1530209369593";"13.0"
"1530209369613";"14.0"
"1530209369614";"15.0"
"1530209369614";"16.0"
"1530209369614";"17.0"
"1530209369636";"18.0"
"1530209369636";"19.0"
"1530209369636";"20.0"
"1530209369636";"21.0"
"1530209369657";"22.0"
"1530209369657";"23.0"
"1530209369657";"24.0"
"1530209369657";"25.0"
"1530209369657";"26.0"
"1530209369678";"27.0"
"1530209369678";"28.0"
"1530209369678";"29.0"
"1530209369678";"30.0"
"1530209369699";"31.0"
"1530209369699";"32.0"
"1530209369700";"33.0"
"1530209369700";"34.0"
"1530209369700";"35.0"
"1530209369722";"36.0"
"1530209369723";"37.0"
"1530209369723";"38.0"
"1530209369743";"39.0"
"1530209369743";"40.0"
"1530209369743";"41.0"
"1530209369744";"42.0"
"1530209369744";"43.0"
"1530209369764";"44.0"
"1530209369764";"45.0"
"1530209369786";"46.0"
"1530209369786";"47.0"
"1530209369786";"48.0"
"1530209369786";"49.0"
"1530209369786";"50.0"
"1530209369807";"51.0"
"1530209369869";"52.0"
"1530209369911";"53.0"
"1530209369933";"52.0"
"1530209369953";"51.0"
"1530209369954";"50.0"
"1530209369954";"48.0"
"1530209369954";"47.0"
"1530209369954";"45.0"
"1530209369954";"44.0"
"1530209369955";"42.0"
"1530209369955";"41.0"
"1530209369976";"39.0"
"1530209369976";"37.0"
"1530209369976";"35.0"
"1530209369997";"34.0"
"1530209369997";"32.0"
"1530209369997";"30.0"
"1530209369997";"28.0"
"1530209369997";"26.0"
"1530209369997";"24.0"
"1530209369998";"22.0"
"1530209369998";"20.0"
"1530209369998";"18.0"
"1530209369998";"16.0"
"1530209370019";"15.0"
"1530209370019";"13.0"
"1530209370019";"11.0"
"1530209370019";"9.0"
"1530209370019";"7.0"
"1530209370019";"5.0"
"1530209370040";"3.0"
"1530209370040";"1.0"
"1530209370041";"0.0"
"1530209370041";"-1.0"
"1530209370065";"-3.0"
"1530209370065";"-5.0"
"1530209370066";"-6.0"
"1530209370087";"-8.0"
"1530209370087";"-10.0"
"1530209370087";"-11.0"
"1530209370087";"-13.0"
"1530209370087";"-15.0"
"1530209370108";"-16.0"
"1530209370108";"-18.0"
"1530209370108";"-19.0"
"1530209370108";"-20.0"
"1530209370108";"-22.0"
"1530209370108";"-23.0"
"1530209370108";"-24.0"
"1530209370110";"-25.0"
"1530209370110";"-27.0"
"1530209370110";"-28.0"
"1530209370110";"-29.0"
"1530209370110";"-30.0"
"1530209370131";"-31.0"
"1530209370131";"-32.0"
"1530209370131";"-33.0"
"1530209370131";"-34.0"
"1530209370131";"-35.0"
"1530209370131";"-36.0"
"1530209370152";"-37.0"
"1530209370152";"-38.0"
"1530209370152";"-39.0"
"1530209370152";"-40.0"
"1530209370174";"-39.0"
"1530209370195";"-38.0"
"1530209370195";"-37.0"
"1530209370195";"-36.0"
"1530209370195";"-34.0"
"1530209370215";"-33.0"
"1530209370216";"-32.0"
"1530209370216";"-30.0"
"1530209370216";"-28.0"
"1530209370216";"-27.0"
"1530209370216";"-25.0"
"1530209370216";"-23.0"
"1530209370216";"-22.0"
"1530209370216";"-20.0"
"1530209370217";"-19.0"
"1530209370237";"-17.0"
"1530209370238";"-15.0"
"1530209370239";"-14.0"
"1530209370239";"-12.0"
"1530209370239";"-10.0"
"1530209370239";"-9.0"
"1530209370260";"-7.0"
"1530209370260";"-5.0"
"1530209370260";"-3.0"
"1530209370260";"-2.0"
"1530209370260";"0.0"
"1530209370260";"1.0"
"1530209370260";"2.0"
"1530209370260";"4.0"
"1530209370260";"6.0"
"1530209370281";"7.0"
"1530209370282";"8.0"
"1530209370282";"10.0"
"1530209370303";"11.0"
"1530209370303";"12.0"
"1530209370303";"14.0"
"1530209370306";"15.0"
"1530209370306";"16.0"
"1530209370306";"17.0"
"1530209370306";"18.0"
"1530209370306";"19.0"
"1530209370328";"20.0"
"1530209370328";"21.0"
"1530209370328";"22.0"
"1530209370349";"23.0"
"1530209370373";"22.0"
"1530209370393";"21.0"
"1530209370394";"20.0"
"1530209370394";"19.0"
"1530209370414";"18.0"
"1530209370415";"17.0"
"1530209370415";"16.0"
"1530209370415";"15.0"
"1530209370415";"14.0"
"1530209370436";"13.0"
"1530209370437";"12.0"
"1530209370437";"11.0"
"1530209370437";"10.0"
"1530209370437";"9.0"
"1530209370457";"8.0"
"1530209370458";"7.0"
"1530209370458";"6.0"
"1530209370458";"5.0"
"1530209370458";"4.0"
"1530209370458";"3.0"
"1530209370458";"2.0"
"1530209370479";"1.0"
"1530209370479";"0.0"
"1530209370479";"-1.0"
"1530209370480";"-2.0"
"1530209370500";"-3.0"
"1530209370500";"-4.0"
"1530209370502";"-5.0"
"1530209370502";"-6.0"
"1530209370502";"-7.0"
"1530209370502";"-8.0"
"1530209370523";"-9.0"
"1530209370523";"-10.0"
"1530209370523";"-11.0"
"1530209370523";"-12.0"
"1530209370524";"-13.0"
"1530209370544";"-14.0"
"1530209370544";"-15.0"
"1530209370544";"-16.0"
"1530209370545";"-17.0"
"1530209370545";"-18.0"
"1530209370566";"-19.0"
"1530209370587";"-20.0"
"1530209370608";"-19.0"
"1530209370630";"-18.0"
"1530209370651";"-17.0"
"1530209370651";"-16.0"
"1530209370672";"-15.0"
"1530209370693";"-14.0"
"1530209370693";"-13.0"
"1530209370693";"-12.0"
"1530209370694";"-11.0"
"1530209370715";"-10.0"
"1530209370715";"-9.0"
"1530209370715";"-8.0"
"1530209370716";"-7.0"
"1530209370736";"-6.0"
"1530209370737";"-5.0"
"1530209370737";"-4.0"
"1530209370737";"-3.0"
"1530209370758";"-2.0"
"1530209370758";"-1.0"
"1530209370758";"0.0"
"1530209370780";"1.0"
"1530209370780";"2.0"
"1530209370801";"3.0"
"1530209370822";"4.0"
"1530209370843";"5.0"
"1530209370864";"6.0"
"1530209370865";"7.0"
"1530209370906";"8.0"
"1530209370909";"9.0"
"1530209370909";"10.0"
"1530209370930";"11.0"
"1530209370931";"12.0"
"1530209370931";"13.0"
"1530209370931";"14.0"
"1530209370951";"15.0"
"1530209370951";"16.0"
"1530209370951";"17.0"
"1530209370972";"18.0"
"1530209370973";"19.0"
"1530209370974";"20.0"
"1530209370974";"21.0"
"1530209370995";"22.0"
"1530209370995";"23.0"
"1530209370995";"24.0"
"1530209370995";"25.0"
"1530209370995";"26.0"
"1530209370996";"27.0"
"1530209370996";"28.0"
"1530209370996";"29.0"
"1530209371016";"30.0"
"1530209371016";"31.0"
"1530209371016";"32.0"
"1530209371017";"33.0"
"1530209371017";"34.0"
"1530209371038";"35.0"
"1530209371038";"36.0"
"1530209371038";"37.0"
"1530209371038";"38.0"
"1530209371038";"39.0"
"1530209371059";"40.0"
"1530209371059";"41.0"
"1530209371059";"42.0"
"1530209371080";"43.0"
"1530209371080";"44.0"
"1530209371080";"45.0"
"1530209371129";"46.0"
"1530209371129";"47.0"
"1530209371152";"48.0"
"1530209371153";"49.0"
"1530209371153";"50.0"
"1530209371153";"49.0"
"1530209371174";"48.0"
"1530209371175";"47.0"
"1530209371175";"46.0"
"1530209371175";"45.0"
"1530209371175";"44.0"
"1530209371196";"43.0"
"1530209371196";"42.0"
"1530209371196";"41.0"
"1530209371196";"39.0"
"1530209371217";"38.0"
"1530209371217";"37.0"
"1530209371217";"36.0"
"1530209371217";"34.0"
"1530209371218";"33.0"
"1530209371218";"31.0"
"1530209371218";"30.0"
"1530209371218";"28.0"
"1530209371219";"27.0"
"1530209371240";"25.0"
"1530209371240";"23.0"
"1530209371240";"21.0"
"1530209371240";"19.0"
"1530209371240";"17.0"
"1530209371240";"15.0"
"1530209371261";"14.0"
"1530209371261";"11.0"
"1530209371261";"9.0"
"1530209371261";"7.0"
"1530209371261";"5.0"
"1530209371261";"3.0"
"1530209371282";"1.0"
"1530209371282";"-1.0"
"1530209371282";"-3.0"
"1530209371282";"-5.0"
"1530209371283";"-7.0"
"1530209371283";"-9.0"
"1530209371303";"-11.0"
"1530209371305";"-13.0"
"1530209371305";"-15.0"
"1530209371306";"-17.0"
"1530209371306";"-19.0"
"1530209371306";"-20.0"
"1530209371306";"-22.0"
"1530209371327";"-23.0"
"1530209371327";"-25.0"
"1530209371327";"-26.0"
"1530209371327";"-27.0"
"1530209371327";"-28.0"
"1530209371327";"-29.0"
"1530209371348";"-30.0"
"1530209371348";"-31.0"
"1530209371348";"-32.0"
"1530209371348";"-33.0"
"1530209371372";"-32.0"
"1530209371393";"-31.0"
"1530209371393";"-30.0"
"1530209371393";"-29.0"
"1530209371393";"-28.0"
"1530209371393";"-27.0"
"1530209371393";"-26.0"
"1530209371393";"-25.0"
"1530209371394";"-24.0"
"1530209371414";"-22.0"
"1530209371415";"-21.0"
"1530209371415";"-20.0"
"1530209371415";"-19.0"
"1530209371415";"-18.0"
"1530209371415";"-17.0"
"1530209371436";"-16.0"
"1530209371437";"-15.0"
"1530209371437";"-14.0"
"1530209371437";"-13.0"
"1530209371459";"-12.0"
"1530209371460";"-11.0"
"1530209371460";"-10.0"
"1530209371481";"-9.0"
"1530209371481";"-8.0"
"1530209371502";"-7.0"
"1530209371503";"-6.0"
"1530209371545";"-7.0"
"1530209371545";"-8.0"
"1530209371567";"-9.0"
"1530209371588";"-10.0"
"1530209371588";"-11.0"
"1530209371588";"-12.0"
"1530209371588";"-13.0"
"1530209371630";"-12.0"
"1530209371630";"-11.0"
"1530209371632";"-10.0"
"1530209371653";"-9.0"
"1530209371653";"-8.0"
"1530209371673";"-7.0"
"1530209371674";"-6.0"
"1530209371674";"-5.0"
"1530209371674";"-4.0"
"1530209371674";"-3.0"
"1530209371695";"-2.0"
"1530209371695";"-1.0"
"1530209371695";"0.0"
"1530209371695";"1.0"
"1530209371695";"3.0"
"1530209371695";"4.0"
"1530209371716";"5.0"
"1530209371716";"6.0"
"1530209371716";"7.0"
"1530209371716";"9.0"
"1530209371717";"10.0"
"1530209371717";"12.0"
"1530209371737";"13.0"
"1530209371737";"15.0"
"1530209371737";"17.0"
"1530209371758";"18.0"
"1530209371758";"20.0"
"1530209371758";"22.0"
"1530209371759";"23.0"
"1530209371759";"25.0"
"1530209371759";"27.0"
"1530209371759";"29.0"
"1530209371761";"31.0"
"1530209371761";"32.0"
"1530209371761";"34.0"
"1530209371782";"36.0"
"1530209371782";"38.0"
"1530209371782";"40.0"
"1530209371782";"41.0"
"1530209371782";"43.0"
"1530209371783";"44.0"
"1530209371803";"46.0"
"1530209371803";"47.0"
"1530209371803";"48.0"
"1530209371804";"49.0"
"1530209371804";"50.0"
"1530209371804";"51.0"
"1530209371824";"52.0"
"1530209371867";"51.0"
"1530209371868";"50.0"
"1530209371888";"49.0"
"1530209371889";"48.0"
"1530209371889";"47.0"
"1530209371889";"46.0"
"1530209371889";"45.0"
"1530209371889";"44.0"
"1530209371890";"43.0"
"1530209371911";"42.0"
"1530209371911";"41.0"
"1530209371911";"40.0"
"1530209371911";"39.0"
"1530209371911";"38.0"
"1530209371911";"36.0"
"1530209371911";"35.0"
"1530209371932";"34.0"
"1530209371932";"33.0"
"1530209371932";"32.0"
"1530209371932";"31.0"
"1530209371932";"29.0"
"1530209371953";"28.0"
"1530209371953";"27.0"
"1530209371953";"25.0"
"1530209371953";"24.0"
"1530209371974";"23.0"
"1530209371974";"21.0"
"1530209371974";"20.0"
"1530209371974";"18.0"
"1530209371974";"17.0"
"1530209371974";"15.0"
"1530209371974";"14.0"
"1530209371974";"12.0"
"1530209371974";"10.0"
"1530209371995";"9.0"
"1530209371995";"7.0"
"1530209371995";"6.0"
"1530209371995";"4.0"
"1530209371996";"3.0"
"1530209371996";"1.0"
"1530209371996";"0.0"
"1530209371996";"-1.0"
"1530209371996";"-3.0"
"1530209372017";"-5.0"
"1530209372017";"-6.0"
"1530209372017";"-8.0"
"1530209372041";"-9.0"
"1530209372041";"-10.0"
"1530209372042";"-11.0"
"1530209372042";"-13.0"
"1530209372042";"-14.0"
"1530209372042";"-15.0"
"1530209372042";"-16.0"
"1530209372093";"-17.0"
"1530209372093";"-18.0"
"1530209372093";"-19.0"
"1530209372114";"-20.0"
"1530209372114";"-21.0"
"1530209372115";"-22.0"
"1530209372115";"-23.0"
"1530209372139";"-24.0"
"1530209372162";"-23.0"
"1530209372227";"-24.0"
"1530209372249";"-25.0"
"1530209372270";"-26.0"
"1530209372291";"-27.0"
"1530209372313";"-28.0"
"1530209372314";"-29.0"
"1530209372356";"-30.0"
"1530209372398";"-29.0"
"1530209372398";"-28.0"
"1530209372398";"-27.0"
"1530209372419";"-26.0"
"1530209372420";"-25.0"
"1530209372420";"-24.0"
"1530209372420";"-23.0"
"1530209372420";"-22.0"
"1530209372421";"-20.0"
"1530209372442";"-19.0"
"1530209372442";"-17.0"
"1530209372442";"-16.0"
"1530209372442";"-14.0"
"1530209372442";"-12.0"
"1530209372442";"-10.0"
"1530209372463";"-7.0"
"1530209372463";"-5.0"
"1530209372463";"-3.0"
"1530209372463";"0.0"
"1530209372464";"1.0"
"1530209372464";"4.0"
"1530209372484";"7.0"
"1530209372484";"9.0"
"1530209372485";"12.0"
"1530209372485";"14.0"
"1530209372485";"17.0"
"1530209372485";"19.0"
"1530209372506";"22.0"
"1530209372507";"24.0"
"1530209372508";"26.0"
"1530209372508";"28.0"
"1530209372508";"30.0"
"1530209372508";"32.0"
"1530209372529";"34.0"
"1530209372529";"35.0"
"1530209372529";"37.0"
"1530209372529";"39.0"
"1530209372529";"40.0"
"1530209372529";"41.0"
"1530209372529";"42.0"
"1530209372530";"43.0"
"1530209372550";"44.0"
"1530209372550";"45.0"
"1530209372550";"46.0"
"1530209372550";"47.0"
"1530209372551";"48.0"
"1530209372572";"49.0"
"1530209372600";"48.0"
"1530209372621";"47.0"
"1530209372621";"46.0"
"1530209372621";"45.0"
"1530209372621";"44.0"
"1530209372622";"43.0"
"1530209372624";"42.0"
"1530209372644";"41.0"
"1530209372645";"40.0"
"1530209372645";"39.0"
"1530209372645";"38.0"
"1530209372645";"37.0"
"1530209372645";"36.0"
"1530209372666";"35.0"
"1530209372666";"34.0"
"1530209372666";"33.0"
"1530209372667";"31.0"
"1530209372667";"30.0"
"1530209372667";"29.0"
"1530209372687";"27.0"
"1530209372688";"26.0"
"1530209372688";"25.0"
"1530209372688";"23.0"
"1530209372688";"22.0"
"1530209372688";"20.0"
"1530209372709";"18.0"
"1530209372710";"17.0"
"1530209372710";"15.0"
"1530209372710";"14.0"
"1530209372710";"13.0"
"1530209372710";"11.0"
"1530209372710";"10.0"
"1530209372710";"9.0"
"1530209372710";"8.0"
"1530209372731";"7.0"
"1530209372731";"6.0"
"1530209372731";"5.0"
"1530209372752";"4.0"
"1530209372752";"3.0"
"1530209372752";"2.0"
"1530209372752";"1.0"
"1530209372752";"0.0"
"1530209372773";"-1.0"
"1530209372774";"-2.0"
"1530209372774";"-3.0"
"1530209372774";"-4.0"
"1530209372774";"-5.0"
"1530209372795";"-6.0"
"1530209372796";"-7.0"
"1530209372796";"-8.0"
"1530209372796";"-9.0"
"1530209372817";"-10.0"
"1530209372817";"-11.0"
"1530209372838";"-12.0"
"1530209372839";"-13.0"
"1530209372839";"-14.0"
"1530209372861";"-15.0"
"1530209372861";"-16.0"
"1530209372882";"-17.0"
"1530209372903";"-18.0"
"1530209372924";"-19.0"
"1530209372946";"-20.0"
"1530209372946";"-21.0"
"1530209372946";"-22.0"
"1530209372970";"-23.0"
"1530209372970";"-24.0"
"1530209373032";"-23.0"
"1530209373033";"-22.0"
"1530209373056";"-21.0"
"1530209373056";"-20.0"
"1530209373056";"-19.0"
"1530209373077";"-18.0"
"1530209373078";"-17.0"
"1530209373078";"-16.0"
"1530209373078";"-15.0"
"1530209373098";"-14.0"
"1530209373099";"-13.0"
"1530209373099";"-12.0"
"1530209373100";"-11.0"
"1530209373100";"-10.0"
"1530209373120";"-9.0"
"1530209373121";"-8.0"
"1530209373141";"-7.0"
"1530209373141";"-6.0"
"1530209373142";"-5.0"
"1530209373142";"-4.0"
"1530209373142";"-3.0"
"1530209373142";"-2.0"
"1530209373142";"-1.0"
"1530209373163";"0.0"
"1530209373164";"1.0"
"1530209373192";"2.0"
"1530209373193";"3.0"
"1530209373193";"4.0"
"1530209373214";"5.0"
"1530209373214";"6.0"
"1530209373214";"7.0"
"1530209373214";"9.0"
"1530209373215";"10.0"
"1530209373215";"12.0"
"1530209373215";"13.0"
"1530209373215";"15.0"
"1530209373215";"16.0"
"1530209373215";"18.0"
"1530209373215";"20.0"
"1530209373215";"22.0"
"1530209373236";"24.0"
"1530209373236";"26.0"
"1530209373237";"28.0"
"1530209373238";"30.0"
"1530209373238";"32.0"
"1530209373238";"34.0"
"1530209373238";"36.0"
"1530209373258";"38.0"
"1530209373259";"39.0"
"1530209373259";"41.0"
"1530209373280";"43.0"
"1530209373280";"45.0"
"1530209373280";"47.0"
"1530209373280";"48.0"
"1530209373280";"50.0"
"1530209373280";"51.0"
"1530209373280";"53.0"
"1530209373280";"54.0"
"1530209373329";"55.0"
"1530209373350";"56.0"
"1530209373373";"55.0"
"1530209373373";"54.0"
"1530209373373";"53.0"
"1530209373398";"51.0"
"1530209373398";"50.0"
"1530209373398";"48.0"
"1530209373398";"46.0"
"1530209373398";"45.0"
"1530209373398";"43.0"
"1530209373398";"41.0"
"1530209373419";"40.0"
"1530209373419";"38.0"
"1530209373419";"36.0"
"1530209373419";"34.0"
"1530209373419";"32.0"
"1530209373419";"30.0"
"1530209373440";"28.0"
"1530209373441";"26.0"
"1530209373442";"24.0"
"1530209373442";"22.0"
"1530209373442";"20.0"
"1530209373442";"18.0"
"1530209373463";"16.0"
"1530209373463";"14.0"
"1530209373463";"11.0"
"1530209373463";"9.0"
"1530209373463";"7.0"
"1530209373463";"5.0"
"1530209373464";"3.0"
"1530209373484";"1.0"
"1530209373485";"0.0"
"1530209373485";"-2.0"
"1530209373485";"-4.0"
"1530209373485";"-5.0"
"1530209373485";"-7.0"
"1530209373485";"-9.0"
"1530209373485";"-10.0"
"1530209373485";"-12.0"
"1530209373506";"-13.0"
"1530209373506";"-14.0"
"1530209373506";"-16.0"
"1530209373506";"-17.0"
"1530209373507";"-18.0"
"1530209373507";"-19.0"
"1530209373527";"-20.0"
"1530209373528";"-21.0"
"1530209373528";"-22.0"
"1530209373528";"-23.0"
"1530209373528";"-24.0"
"1530209373549";"-25.0"
"1530209373550";"-26.0"
"1530209373550";"-27.0"
"1530209373550";"-28.0"
"1530209373571";"-29.0"
"1530209373617";"-28.0"
"1530209373617";"-27.0"
"1530209373617";"-26.0"
"1530209373639";"-25.0"
"1530209373660";"-24.0"
"1530209373681";"-23.0"
"1530209373681";"-22.0"
"1530209373681";"-21.0"
"1530209373702";"-20.0"
"1530209373702";"-19.0"
"1530209373702";"-18.0"
"1530209373723";"-17.0"
"1530209373724";"-16.0"
"1530209373744";"-15.0"
"1530209373765";"-14.0"
"1530209373808";"-15.0"
"1530209373829";"-16.0"
"1530209373832";"-17.0"
"1530209373853";"-18.0"
"1530209373874";"-19.0"
"1530209373875";"-20.0"
"1530209373875";"-21.0"
"1530209373895";"-22.0"
"1530209373938";"-21.0"
"1530209373959";"-20.0"
"1530209373981";"-19.0"
"1530209373981";"-18.0"
"1530209373981";"-17.0"
"1530209374002";"-16.0"
"1530209374002";"-15.0"
"1530209374003";"-14.0"
"1530209374023";"-13.0"
"1530209374024";"-12.0"
"1530209374024";"-11.0"
"1530209374024";"-10.0"
"1530209374024";"-9.0"
"1530209374024";"-8.0"
"1530209374024";"-7.0"
"1530209374025";"-5.0"
"1530209374046";"-4.0"
"1530209374046";"-2.0"
"1530209374046";"-1.0"
"1530209374046";"0.0"
"1530209374072";"2.0"
"1530209374073";"4.0"
"1530209374073";"6.0"
"1530209374093";"8.0"
"1530209374094";"11.0"
"1530209374094";"13.0"
"1530209374094";"15.0"
"1530209374094";"17.0"
"1530209374094";"20.0"
"1530209374094";"22.0"
"1530209374094";"24.0"
"1530209374094";"26.0"
"1530209374115";"28.0"
"1530209374115";"30.0"
"1530209374116";"32.0"
"1530209374116";"34.0"
"1530209374116";"36.0"
"1530209374116";"38.0"
"1530209374116";"39.0"
"1530209374116";"41.0"
"1530209374116";"42.0"
"1530209374116";"43.0"
"1530209374116";"44.0"
"1530209374116";"45.0"
"1530209374151";"46.0"
"1530209374151";"47.0"
"1530209374152";"48.0"
"1530209374172";"49.0"
"1530209374173";"50.0"
"1530209374173";"49.0"
"1530209374193";"48.0"
"1530209374194";"47.0"
"1530209374194";"46.0"
"1530209374194";"45.0"
"1530209374194";"44.0"
"1530209374214";"43.0"
"1530209374215";"42.0"
"1530209374215";"41.0"
"1530209374236";"40.0"
"1530209374236";"39.0"
"1530209374236";"38.0"
"1530209374237";"37.0"
"1530209374238";"36.0"
"1530209374238";"35.0"
"1530209374238";"34.0"
"1530209374238";"32.0"
"1530209374259";"31.0"
"1530209374259";"30.0"
"1530209374259";"29.0"
"1530209374259";"28.0"
"1530209374260";"26.0"
"1530209374260";"25.0"
"1530209374260";"24.0"
"1530209374280";"23.0"
"1530209374281";"21.0"
"1530209374281";"20.0"
"1530209374281";"19.0"
"1530209374281";"17.0"
"1530209374281";"16.0"
"1530209374301";"15.0"
"1530209374302";"13.0"
"1530209374303";"12.0"
"1530209374303";"11.0"
"1530209374303";"9.0"
"1530209374303";"8.0"
"1530209374303";"7.0"
"1530209374324";"6.0"
"1530209374324";"4.0"
"1530209374324";"3.0"
"1530209374324";"2.0"
"1530209374324";"1.0"
"1530209374324";"0.0"
"1530209374345";"-1.0"
"1530209374346";"-2.0"
"1530209374346";"-3.0"
"1530209374346";"-4.0"
"1530209374346";"-5.0"
"1530209374346";"-6.0"
"1530209374367";"-7.0"
"1530209374367";"-8.0"
"1530209374367";"-9.0"
"1530209374387";"-10.0"
"1530209374388";"-11.0"
"1530209374388";"-12.0"
"1530209374408";"-13.0"
"1530209374409";"-14.0"
"1530209374472";"-13.0"
"1530209374535";"-12.0"
"1530209374598";"-13.0"
"1530209374619";"-14.0"
"1530209374640";"-15.0"
"1530209374641";"-16.0"
"1530209374641";"-17.0"
"1530209374662";"-18.0"
"1530209374662";"-19.0"
"1530209374725";"-18.0"
"1530209374726";"-17.0"
"1530209374726";"-16.0"
"1530209374726";"-15.0"
"1530209374747";"-14.0"
"1530209374768";"-13.0"
"1530209374851";"-12.0"
"1530209374872";"-11.0"
"1530209374872";"-10.0"
"1530209374893";"-9.0"
"1530209374893";"-8.0"
"1530209374893";"-7.0"
"1530209374893";"-6.0"
"1530209374893";"-5.0"
"1530209374893";"-4.0"
"1530209374895";"-3.0"
"1530209374895";"-1.0"
"1530209374895";"0.0"
"1530209374895";"1.0"
"1530209374916";"2.0"
"1530209374916";"4.0"
"1530209374916";"6.0"
"1530209374916";"7.0"
"1530209374916";"9.0"
"1530209374937";"11.0"
"1530209374937";"13.0"
"1530209374937";"14.0"
"1530209374937";"16.0"
"1530209374937";"18.0"
"1530209374958";"19.0"
"1530209374958";"21.0"
"1530209374958";"22.0"
"1530209374959";"24.0"
"1530209374959";"25.0"
"1530209374959";"26.0"
"1530209374962";"27.0"
"1530209374962";"28.0"
"1530209374962";"29.0"
"1530209374983";"30.0"
"1530209374983";"31.0"
"1530209374983";"32.0"
"1530209374984";"33.0"
"1530209374984";"34.0"
"1530209375004";"35.0"
"1530209375005";"36.0"
"1530209375005";"37.0"
"1530209375025";"38.0"
"1530209375046";"39.0"
"1530209375047";"38.0"
"1530209375047";"37.0"
"1530209375075";"36.0"
"1530209375095";"35.0"
"1530209375096";"34.0"
"1530209375116";"33.0"
"1530209375116";"32.0"
"1530209375117";"31.0"
"1530209375118";"30.0"
"1530209375118";"29.0"
"1530209375118";"28.0"
"1530209375118";"27.0"
"1530209375138";"26.0"
"1530209375139";"25.0"
"1530209375139";"24.0"
"1530209375139";"23.0"
"1530209375139";"22.0"
"1530209375139";"21.0"
"1530209375139";"20.0"
"1530209375139";"19.0"
"1530209375160";"18.0"
"1530209375160";"17.0"
"1530209375160";"16.0"
"1530209375160";"15.0"
"1530209375160";"14.0"
"1530209375160";"13.0"
"1530209375162";"11.0"
"1530209375183";"10.0"
"1530209375183";"9.0"
"1530209375183";"8.0"
"1530209375183";"7.0"
"1530209375183";"6.0"
"1530209375183";"5.0"
"1530209375183";"4.0"
"1530209375184";"3.0"
"1530209375204";"2.0"
"1530209375204";"1.0"
"1530209375204";"0.0"
"1530209375204";"-1.0"
"1530209375225";"-2.0"
"1530209375226";"-3.0"
"1530209375226";"-4.0"
"1530209375227";"-5.0"
"1530209375248";"-6.0"
"1530209375248";"-7.0"
"1530209375248";"-8.0"
"1530209375269";"-9.0"
"1530209375313";"-8.0"
"1530209375334";"-7.0"
"1530209375355";"-6.0"
"1530209375356";"-5.0"
"1530209375377";"-4.0"
"1530209375377";"-3.0"
"1530209375398";"-2.0"
"1530209375419";"-1.0"
"1530209375419";"0.0"
"1530209375419";"1.0"
"1530209375419";"2.0"
"1530209375442";"3.0"
"1530209375443";"4.0"
"1530209375443";"5.0"
"1530209375464";"6.0"
"1530209375465";"7.0"
"1530209375485";"8.0"
"1530209375486";"9.0"
"1530209375506";"10.0"
"1530209375508";"11.0"
"1530209375508";"12.0"
"1530209375508";"13.0"
"1530209375528";"14.0"
"1530209375549";"13.0"
"1530209375572";"12.0"
"1530209375572";"11.0"
"1530209375593";"10.0"
"1530209375593";"11.0"
"1530209375613";"12.0"
"1530209375614";"13.0"
"1530209375614";"14.0"
"1530209375614";"15.0"
"1530209375634";"16.0"
"1530209375635";"17.0"
"1530209375637";"18.0"
"1530209375637";"19.0"
"1530209375638";"20.0"
"1530209375638";"21.0"
"1530209375659";"22.0"
"1530209375659";"23.0"
"1530209375659";"24.0"
"1530209375704";"23.0"
"1530209375725";"22.0"
"1530209375746";"21.0"
"1530209375746";"20.0"
"1530209375746";"19.0"
"1530209375767";"18.0"
"1530209375767";"17.0"
"1530209375767";"16.0"
"1530209375788";"15.0"
"1530209375788";"14.0"
"1530209375788";"13.0"
"1530209375788";"12.0"
"1530209375809";"11.0"
"1530209375830";"10.0"
"1530209375851";"11.0"
"1530209375852";"12.0"
"1530209375852";"13.0"
"1530209375852";"14.0"
"1530209375852";"15.0"
"1530209375873";"16.0"
"1530209375873";"17.0"
"1530209375873";"16.0"
"1530209375873";"15.0"
"1530209375873";"14.0"
"1530209375873";"12.0"
"1530209375894";"11.0"
"1530209375894";"9.0"
"1530209375894";"8.0"
"1530209375894";"6.0"
"1530209375896";"5.0"
"1530209375896";"3.0"
"1530209375916";"2.0"
"1530209375917";"0.0"
"1530209375917";"-1.0"
"1530209375917";"-2.0"
"1530209375917";"-3.0"
"1530209375917";"-4.0"
"1530209375938";"-5.0"
"1530209375938";"-6.0"
"1530209375939";"-7.0"
"1530209375959";"-8.0"
"1530209375959";"-9.0"
"1530209375960";"-10.0"
"1530209375982";"-11.0"
"1530209375982";"-12.0"
"1530209376003";"-13.0"
"1530209376067";"-12.0"
"1530209376088";"-11.0"
"1530209376088";"-10.0"
"1530209376109";"-9.0"
"1530209376112";"-8.0"
"1530209376112";"-7.0"
"1530209376133";"-6.0"
"1530209376238";"-7.0"
"1530209376240";"-8.0"
"1530209376261";"-9.0"
"1530209376261";"-10.0"
"1530209376282";"-9.0"
"1530209376282";"-8.0"
"1530209376304";"-7.0"
"1530209376304";"-6.0"
"1530209376304";"-5.0"
"1530209376325";"-4.0"
"1530209376325";"-3.0"
"1530209376325";"-2.0"
"1530209376325";"-1.0"
"1530209376325";"0.0"
"1530209376369";"-1.0"
"1530209376390";"-2.0"
"1530209376390";"-3.0"
"1530209376411";"-4.0"
"1530209376411";"-5.0"
"1530209376411";"-6.0"
"1530209376434";"-7.0"
"1530209376455";"-8.0"
"1530209376476";"-9.0"
"1530209376497";"-10.0"
"1530209376497";"-11.0"
"1530209376571";"-12.0"
"1530209376572";"-13.0"
"1530209376572";"-14.0"
"1530209376572";"-15.0"
"1530209376597";"-14.0"
"1530209376617";"-13.0"
"1530209376618";"-12.0"
"1530209376618";"-11.0"
"1530209376618";"-10.0"
"1530209376638";"-9.0"
"1530209376640";"-8.0"
"1530209376640";"-7.0"
"1530209376640";"-6.0"
"1530209376640";"-5.0"
"1530209376661";"-4.0"
"1530209376661";"-3.0"
"1530209376661";"-2.0"
"1530209376661";"-1.0"
"1530209376661";"0.0"
"1530209376682";"1.0"
"1530209376682";"2.0"
"1530209376703";"3.0"
"1530209376703";"4.0"
"1530209376706";"5.0"
"1530209376706";"6.0"
"1530209376727";"7.0"
"1530209376728";"8.0"
"1530209376728";"9.0"
"1530209376749";"10.0"
"1530209376793";"9.0"
"1530209376814";"8.0"
"1530209376814";"7.0"
"1530209376814";"6.0"
"1530209376814";"5.0"
"1530209376836";"4.0"
"1530209376857";"3.0"
"1530209376857";"2.0"
"1530209376857";"1.0"
"1530209376878";"0.0"
"1530209376878";"-1.0"
"1530209376878";"-2.0"
"1530209376899";"-3.0"
"1530209376900";"-4.0"
"1530209376901";"-5.0"
"1530209376922";"-6.0"
"1530209376970";"-7.0"
"1530209376990";"-8.0"
"1530209377012";"-9.0"
"1530209377054";"-10.0"
"1530209377075";"-11.0"
"1530209377117";"-10.0"
"1530209377180";"-11.0"
"1530209377181";"-12.0"
"1530209377222";"-13.0"
"1530209377373";"-14.0"
"1530209377393";"-15.0"
"1530209377414";"-16.0"
"1530209377456";"-17.0"
"1530209377477";"-18.0"
"1530209377478";"-19.0"
"1530209377499";"-18.0"
"1530209377500";"-17.0"
"1530209377500";"-16.0"
"1530209377500";"-15.0"
"1530209377522";"-14.0"
"1530209377542";"-13.0"
"1530209377543";"-12.0"
"1530209377543";"-11.0"
"1530209377543";"-10.0"
"1530209377543";"-9.0"
"1530209377543";"-7.0"
"1530209377564";"-6.0"
"1530209377564";"-4.0"
"1530209377564";"-3.0"
"1530209377564";"-1.0"
"1530209377564";"0.0"
"1530209377564";"1.0"
"1530209377565";"2.0"
"1530209377565";"4.0"
"1530209377565";"5.0"
"1530209377565";"7.0"
"1530209377565";"8.0"
"1530209377565";"9.0"
"1530209377565";"11.0"
"1530209377565";"12.0"
"1530209377586";"13.0"
"1530209377586";"14.0"
"1530209377586";"15.0"
"1530209377586";"16.0"
"1530209377587";"17.0"
"1530209377607";"18.0"
"1530209377608";"19.0"
"1530209377629";"18.0"
"1530209377629";"17.0"
"1530209377630";"16.0"
"1530209377651";"15.0"
"1530209377651";"14.0"
"1530209377651";"13.0"
"1530209377651";"12.0"
"1530209377651";"11.0"
"1530209377651";"10.0"
"1530209377672";"9.0"
"1530209377672";"8.0"
"1530209377672";"7.0"
"1530209377672";"6.0"
"1530209377672";"5.0"
"1530209377672";"4.0"
"1530209377672";"3.0"
"1530209377693";"2.0"
"1530209377693";"0.0"
"1530209377693";"-1.0"
"1530209377694";"-3.0"
"1530209377715";"-4.0"
"1530209377716";"-6.0"
"1530209377716";"-8.0"
"1530209377716";"-9.0"
"1530209377737";"-11.0"
"1530209377737";"-13.0"
"1530209377737";"-15.0"
"1530209377737";"-17.0"
"1530209377737";"-19.0"
"1530209377737";"-22.0"
"1530209377737";"-24.0"
"1530209377737";"-26.0"
"1530209377737";"-28.0"
"1530209377759";"-31.0"
"1530209377760";"-33.0"
"1530209377760";"-35.0"
"1530209377760";"-38.0"
"1530209377760";"-40.0"
"1530209377760";"-43.0"
"1530209377782";"-45.0"
"1530209377782";"-47.0"
"1530209377782";"-50.0"
"1530209377782";"-52.0"
"1530209377782";"-54.0"
"1530209377782";"-57.0"
"1530209377782";"-59.0"
"1530209377782";"-61.0"
"1530209377782";"-63.0"
"1530209377803";"-65.0"
"1530209377803";"-67.0"
"1530209377803";"-69.0"
"1530209377824";"-71.0"
"1530209377824";"-73.0"
"1530209377824";"-75.0"
"1530209377824";"-76.0"
"1530209377824";"-78.0"
"1530209377824";"-79.0"
"1530209377824";"-81.0"
"1530209377845";"-82.0"
"1530209377845";"-83.0"
"1530209377845";"-84.0"
"1530209377845";"-85.0"
"1530209377845";"-86.0"
"1530209377866";"-87.0"
"1530209377866";"-88.0"
"1530209377866";"-87.0"
"1530209377887";"-86.0"
"1530209377887";"-85.0"
"1530209377910";"-84.0"
"1530209377910";"-83.0"
"1530209377910";"-82.0"
"1530209377930";"-81.0"
"1530209377931";"-80.0"
"1530209377931";"-79.0"
"1530209377931";"-78.0"
"1530209377931";"-77.0"
"1530209377951";"-76.0"
"1530209377952";"-75.0"
"1530209377952";"-74.0"
"1530209377952";"-73.0"
"1530209377952";"-72.0"
"1530209377973";"-71.0"
"1530209377973";"-70.0"
"1530209377973";"-69.0"
"1530209377973";"-68.0"
"1530209377974";"-67.0"
"1530209377974";"-66.0"
"1530209377994";"-65.0"
"1530209377995";"-64.0"
"1530209377995";"-63.0"
"1530209377995";"-62.0"
"1530209377995";"-61.0"
"1530209377995";"-60.0"
"1530209378016";"-59.0"
"1530209378016";"-58.0"
"1530209378016";"-57.0"
"1530209378016";"-56.0"
"1530209378016";"-55.0"
"1530209378016";"-54.0"
"1530209378016";"-53.0"
"1530209378037";"-52.0"
"1530209378038";"-51.0"
"1530209378058";"-50.0"
"1530209378059";"-49.0"
"1530209378079";"-48.0"
"1530209378100";"-49.0"
"1530209378100";"-50.0"
"1530209378121";"-51.0"
"1530209378121";"-52.0"
"1530209378121";"-53.0"
"1530209378121";"-54.0"
"1530209378142";"-55.0"
"1530209378142";"-56.0"
"1530209378142";"-58.0"
"1530209378142";"-59.0"
"1530209378142";"-61.0"
"1530209378142";"-62.0"
"1530209378142";"-64.0"
"1530209378142";"-66.0"
"1530209378163";"-67.0"
"1530209378163";"-69.0"
"1530209378163";"-71.0"
"1530209378165";"-72.0"
"1530209378165";"-74.0"
"1530209378166";"-75.0"
"1530209378186";"-76.0"
"1530209378187";"-77.0"
"1530209378187";"-78.0"
"1530209378187";"-79.0"
"1530209378187";"-80.0"
"1530209378229";"-79.0"
"1530209378230";"-78.0"
"1530209378230";"-77.0"
"1530209378231";"-76.0"
"1530209378231";"-75.0"
"1530209378231";"-74.0"
"1530209378252";"-73.0"
"1530209378252";"-72.0"
"1530209378252";"-71.0"
"1530209378273";"-70.0"
"1530209378273";"-69.0"
"1530209378274";"-68.0"
"1530209378274";"-66.0"
"1530209378274";"-65.0"
"1530209378274";"-64.0"
"1530209378274";"-63.0"
"1530209378274";"-62.0"
"1530209378274";"-61.0"
"1530209378295";"-60.0"
"1530209378295";"-59.0"
"1530209378295";"-57.0"
"1530209378295";"-56.0"
"1530209378295";"-55.0"
"1530209378316";"-54.0"
"1530209378316";"-53.0"
"1530209378316";"-52.0"
"1530209378316";"-51.0"
"1530209378316";"-50.0"
"1530209378316";"-49.0"
"1530209378316";"-48.0"
"1530209378337";"-47.0"
"1530209378337";"-46.0"
"1530209378338";"-45.0"
"1530209378338";"-44.0"
"1530209378338";"-43.0"
"1530209378338";"-42.0"
"1530209378359";"-41.0"
"1530209378359";"-40.0"
"1530209378359";"-39.0"
"1530209378360";"-38.0"
"1530209378360";"-37.0"
"1530209378361";"-36.0"
"1530209378381";"-35.0"
"1530209378382";"-34.0"
"1530209378382";"-33.0"
"1530209378382";"-32.0"
"1530209378382";"-31.0"
"1530209378382";"-30.0"
"1530209378382";"-29.0"
"1530209378403";"-28.0"
"1530209378403";"-27.0"
"1530209378423";"-26.0"
"1530209378424";"-25.0"
"1530209378424";"-24.0"
"1530209378424";"-23.0"
"1530209378424";"-21.0"
"1530209378424";"-20.0"
"1530209378424";"-18.0"
"1530209378424";"-16.0"
"1530209378424";"-14.0"
"1530209378458";"-12.0"
"1530209378458";"-10.0"
"1530209378459";"-7.0"
"1530209378459";"-4.0"
"1530209378479";"-1.0"
"1530209378479";"0.0"
"1530209378479";"4.0"
"1530209378479";"7.0"
"1530209378479";"10.0"
"1530209378480";"13.0"
"1530209378500";"17.0"
"1530209378500";"20.0"
"1530209378500";"24.0"
"1530209378500";"27.0"
"1530209378501";"30.0"
"1530209378501";"34.0"
"1530209378501";"37.0"
"1530209378501";"40.0"
"1530209378501";"43.0"
"1530209378522";"46.0"
"1530209378523";"49.0"
"1530209378523";"52.0"
"1530209378523";"55.0"
"1530209378523";"58.0"
"1530209378545";"59.0"
"1530209378566";"60.0"
"1530209378589";"61.0"
"1530209378631";"60.0"
"1530209378632";"57.0"
"1530209378632";"54.0"
"1530209378632";"51.0"
"1530209378632";"48.0"
"1530209378632";"45.0"
"1530209378632";"42.0"
"1530209378632";"38.0"
"1530209378653";"35.0"
"1530209378653";"31.0"
"1530209378653";"28.0"
"1530209378653";"24.0"
"1530209378653";"21.0"
"1530209378653";"17.0"
"1530209378674";"14.0"
"1530209378674";"10.0"
"1530209378674";"6.0"
"1530209378675";"3.0"
"1530209378675";"0.0"
"1530209378675";"-4.0"
"1530209378695";"-8.0"
"1530209378696";"-11.0"
"1530209378696";"-15.0"
"1530209378696";"-18.0"
"1530209378696";"-22.0"
"1530209378696";"-25.0"
"1530209378697";"-28.0"
"1530209378718";"-32.0"
"1530209378718";"-35.0"
"1530209378718";"-38.0"
"1530209378718";"-41.0"
"1530209378718";"-43.0"
"1530209378718";"-46.0"
"1530209378718";"-48.0"
"1530209378718";"-51.0"
"1530209378739";"-53.0"
"1530209378739";"-55.0"
"1530209378739";"-57.0"
"1530209378739";"-59.0"
"1530209378739";"-60.0"
"1530209378739";"-62.0"
"1530209378739";"-63.0"
"1530209378760";"-64.0"
"1530209378760";"-65.0"
"1530209378760";"-66.0"
"1530209378761";"-67.0"
"1530209378781";"-68.0"
"1530209378802";"-67.0"
"1530209378802";"-66.0"
"1530209378803";"-65.0"
"1530209378823";"-64.0"
"1530209378824";"-63.0"
"1530209378824";"-62.0"
"1530209378825";"-61.0"
"1530209378847";"-60.0"
"1530209378847";"-59.0"
"1530209378847";"-58.0"
"1530209378847";"-57.0"
"1530209378847";"-56.0"
"1530209378847";"-55.0"
"1530209378868";"-54.0"
"1530209378868";"-53.0"
"1530209378868";"-52.0"
"1530209378868";"-51.0"
"1530209378889";"-50.0"
"1530209378889";"-49.0"
"1530209378889";"-48.0"
"1530209378889";"-47.0"
"1530209378889";"-46.0"
"1530209378889";"-45.0"
"1530209378889";"-44.0"
"1530209378910";"-43.0"
"1530209378910";"-42.0"
"1530209378910";"-41.0"
"1530209378910";"-40.0"
"1530209378910";"-39.0"
"1530209378911";"-38.0"
"1530209378911";"-37.0"
"1530209378911";"-36.0"
"1530209378931";"-35.0"
"1530209378931";"-34.0"
"1530209378932";"-33.0"
"1530209378932";"-32.0"
"1530209378932";"-31.0"
"1530209378952";"-30.0"
"1530209378953";"-29.0"
"1530209378953";"-28.0"
"1530209378953";"-27.0"
"1530209378953";"-26.0"
"1530209378980";"-25.0"
"1530209378980";"-24.0"
"1530209378980";"-23.0"
"1530209379001";"-22.0"
"1530209379001";"-21.0"
"1530209379001";"-20.0"
"1530209379001";"-19.0"
"1530209379001";"-18.0"
"1530209379001";"-17.0"
"1530209379022";"-16.0"
"1530209379023";"-15.0"
"1530209379043";"-14.0"
"1530209379046";"-13.0"
"1530209379046";"-12.0"
"1530209379046";"-11.0"
"1530209379067";"-10.0"
"1530209379067";"-9.0"
"1530209379068";"-8.0"
"1530209379068";"-7.0"
"1530209379112";"-8.0"
"1530209379133";"-9.0"
"1530209379154";"-10.0"
"1530209379154";"-11.0"
"1530209379175";"-12.0"
"1530209379176";"-13.0"
"1530209379197";"-14.0"
"1530209379262";"-13.0"
"1530209379262";"-12.0"
"1530209379262";"-11.0"
"1530209379283";"-10.0"
"1530209379283";"-9.0"
"1530209379283";"-8.0"
"1530209379283";"-7.0"
"1530209379283";"-6.0"
"1530209379283";"-5.0"
"1530209379283";"-3.0"
"1530209379283";"-1.0"
"1530209379285";"0.0"
"1530209379306";"2.0"
"1530209379306";"5.0"
"1530209379306";"7.0"
"1530209379327";"10.0"
"1530209379327";"13.0"
"1530209379327";"16.0"
"1530209379327";"19.0"
"1530209379327";"23.0"
"1530209379328";"26.0"
"1530209379348";"30.0"
"1530209379349";"33.0"
"1530209379349";"36.0"
"1530209379349";"40.0"
"1530209379349";"43.0"
"1530209379349";"46.0"
"1530209379349";"49.0"
"1530209379349";"52.0"
"1530209379349";"54.0"
"1530209379370";"57.0"
"1530209379371";"59.0"
"1530209379371";"61.0"
"1530209379371";"63.0"
"1530209379371";"64.0"
"1530209379413";"65.0"
"1530209379435";"66.0"
"1530209379477";"67.0"
"1530209379478";"65.0"
"1530209379498";"63.0"
"1530209379498";"61.0"
"1530209379498";"59.0"
"1530209379498";"58.0"
"1530209379499";"56.0"
"1530209379500";"54.0"
"1530209379521";"52.0"
"1530209379521";"50.0"
"1530209379521";"49.0"
"1530209379541";"47.0"
"1530209379542";"45.0"
"1530209379542";"43.0"
"1530209379542";"42.0"
"1530209379542";"40.0"
"1530209379542";"38.0"
"1530209379542";"37.0"
"1530209379562";"35.0"
"1530209379563";"34.0"
"1530209379563";"32.0"
"1530209379563";"31.0"
"1530209379563";"29.0"
"1530209379563";"28.0"
"1530209379563";"26.0"
"1530209379563";"25.0"
"1530209379563";"24.0"
"1530209379585";"23.0"
"1530209379585";"22.0"
"1530209379585";"21.0"
"1530209379585";"19.0"
"1530209379607";"18.0"
"1530209379607";"17.0"
"1530209379607";"16.0"
"1530209379607";"15.0"
"1530209379628";"14.0"
"1530209379629";"13.0"
"1530209379649";"12.0"
"1530209379650";"11.0"
"1530209379650";"10.0"
"1530209379650";"9.0"
"1530209379650";"8.0"
"1530209379671";"7.0"
"1530209379671";"6.0"
"1530209379671";"5.0"
"1530209379671";"4.0"
"1530209379672";"3.0"
"1530209379672";"2.0"
"1530209379692";"1.0"
"1530209379713";"0.0"
"1530209379715";"-1.0"
"1530209379736";"-2.0"
"1530209379737";"-3.0"
"1530209379757";"-4.0"
"1530209379758";"-5.0"
"1530209379780";"-6.0"
"1530209379801";"-5.0"
"1530209379822";"-4.0"
"1530209379822";"-3.0"
"1530209379843";"-2.0"
"1530209379864";"-1.0"
"1530209379907";"0.0"
"1530209379928";"1.0"
"1530209379929";"2.0"
"1530209379949";"3.0"
"1530209379949";"2.0"
"1530209379971";"1.0"
"1530209379971";"0.0"
"1530209379971";"-1.0"
"1530209379992";"-2.0"
"1530209379992";"-3.0"
"1530209380034";"-2.0"
"1530209380036";"-1.0"
"1530209380037";"0.0"
"1530209380057";"1.0"
"1530209380058";"2.0"
"1530209380058";"3.0"
"1530209380058";"4.0"
"1530209380079";"5.0"
"1530209380079";"7.0"
"1530209380079";"8.0"
"1530209380080";"10.0"
"1530209380080";"13.0"
"1530209380080";"15.0"
"1530209380080";"18.0"
"1530209380080";"21.0"
"1530209380080";"25.0"
"1530209380101";"29.0"
"1530209380101";"32.0"
"1530209380102";"36.0"
"1530209380102";"40.0"
"1530209380102";"45.0"
"1530209380102";"49.0"
"1530209380102";"53.0"
"1530209380123";"57.0"
"1530209380123";"61.0"
"1530209380123";"62.0"
"1530209380164";"63.0"
"1530209380167";"64.0"
"1530209380188";"65.0"
"1530209380209";"66.0"
"1530209380230";"67.0"
"1530209380231";"68.0"
"1530209380252";"69.0"
"1530209380273";"70.0"
"1530209380273";"71.0"
"1530209380294";"72.0"
"1530209380316";"73.0"
"1530209380337";"74.0"
"1530209380358";"75.0"
"1530209380381";"76.0"
"1530209380381";"74.0"
"1530209380402";"73.0"
"1530209380402";"71.0"
"1530209380402";"69.0"
"1530209380402";"67.0"
"1530209380402";"65.0"
"1530209380403";"63.0"
"1530209380423";"61.0"
"1530209380423";"59.0"
"1530209380423";"58.0"
"1530209380423";"56.0"
"1530209380424";"54.0"
"1530209380424";"53.0"
"1530209380444";"51.0"
"1530209380444";"50.0"
"1530209380466";"49.0"
"1530209380466";"48.0"
"1530209380467";"47.0"
"1530209380467";"46.0"
"1530209380487";"45.0"
"1530209380487";"44.0"
"1530209380488";"43.0"
"1530209380488";"42.0"
"1530209380509";"41.0"
"1530209380509";"40.0"
"1530209380509";"39.0"
"1530209380510";"38.0"
"1530209380510";"37.0"
"1530209380510";"36.0"
"1530209380512";"35.0"
"1530209380513";"34.0"
"1530209380533";"33.0"
"1530209380534";"32.0"
"1530209380534";"31.0"
"1530209380555";"30.0"
"1530209380555";"29.0"
"1530209380555";"28.0"
"1530209380555";"27.0"
"1530209380555";"26.0"
"1530209380555";"25.0"
"1530209380555";"23.0"
"1530209380555";"22.0"
"1530209380556";"21.0"
"1530209380576";"20.0"
"1530209380577";"18.0"
"1530209380578";"17.0"
"1530209380578";"15.0"
"1530209380578";"14.0"
"1530209380578";"12.0"
"1530209380578";"11.0"
"1530209380578";"9.0"
"1530209380578";"7.0"
"1530209380599";"6.0"
"1530209380599";"4.0"
"1530209380599";"2.0"
"1530209380620";"1.0"
"1530209380620";"0.0"
"1530209380620";"-1.0"
"1530209380620";"-3.0"
"1530209380620";"-5.0"
"1530209380620";"-6.0"
"1530209380620";"-8.0"
"1530209380620";"-9.0"
"1530209380621";"-11.0"
"1530209380642";"-12.0"
"1530209380642";"-14.0"
"1530209380642";"-15.0"
"1530209380643";"-16.0"
"1530209380643";"-18.0"
"1530209380663";"-19.0"
"1530209380663";"-20.0"
"1530209380663";"-21.0"
"1530209380663";"-22.0"
"1530209380663";"-23.0"
"1530209380664";"-24.0"
"1530209380664";"-25.0"
"1530209380684";"-26.0"
"1530209380684";"-27.0"
"1530209380685";"-28.0"
"1530209380685";"-29.0"
"1530209380705";"-30.0"
"1530209380728";"-29.0"
"1530209380728";"-28.0"
"1530209380749";"-27.0"
"1530209380749";"-26.0"
"1530209380750";"-25.0"
"1530209380750";"-24.0"
"1530209380750";"-23.0"
"1530209380771";"-22.0"
"1530209380772";"-21.0"
"1530209380772";"-20.0"
"1530209380774";"-19.0"
"1530209380775";"-18.0"
"1530209380795";"-17.0"
"1530209380796";"-16.0"
"1530209380796";"-15.0"
"1530209380796";"-14.0"
"1530209380816";"-13.0"
"1530209380817";"-12.0"
"1530209380817";"-11.0"
"1530209380817";"-10.0"
"1530209380817";"-9.0"
"1530209380817";"-8.0"
"1530209380837";"-7.0"
"1530209380837";"-6.0"
"1530209380838";"-5.0"
"1530209380838";"-4.0"
"1530209380838";"-3.0"
"1530209380839";"-2.0"
"1530209380839";"-1.0"
"1530209380839";"0.0"
"1530209380860";"1.0"
"1530209380860";"3.0"
"1530209380860";"4.0"
"1530209380860";"5.0"
"1530209380860";"6.0"
"1530209380881";"7.0"
"1530209380881";"9.0"
"1530209380881";"10.0"
"1530209380881";"11.0"
"1530209380882";"12.0"
"1530209380882";"13.0"
"1530209380902";"14.0"
"1530209380902";"15.0"
"1530209380903";"16.0"
"1530209380903";"17.0"
"1530209380923";"18.0"
"1530209380924";"19.0"
"1530209380924";"20.0"
"1530209380945";"19.0"
"1530209380966";"18.0"
"1530209380966";"17.0"
"1530209380966";"16.0"
"1530209380967";"15.0"
"1530209380967";"14.0"
"1530209380967";"13.0"
"1530209380967";"11.0"
"1530209380988";"10.0"
"1530209380988";"8.0"
"1530209380988";"6.0"
"1530209380988";"4.0"
"1530209380989";"2.0"
"1530209381009";"0.0"
"1530209381010";"-1.0"
"1530209381010";"-4.0"
"1530209381010";"-7.0"
"1530209381010";"-10.0"
"1530209381010";"-14.0"
"1530209381010";"-18.0"
"1530209381031";"-22.0"
"1530209381031";"-26.0"
"1530209381032";"-30.0"
"1530209381032";"-35.0"
"1530209381033";"-39.0"
"1530209381033";"-43.0"
"1530209381054";"-48.0"
"1530209381054";"-52.0"
"1530209381054";"-57.0"
"1530209381054";"-61.0"
"1530209381054";"-65.0"
"1530209381054";"-69.0"
"1530209381054";"-73.0"
"1530209381054";"-77.0"
"1530209381055";"-81.0"
"1530209381075";"-84.0"
"1530209381075";"-88.0"
"1530209381096";"-91.0"
"1530209381096";"-94.0"
"1530209381096";"-97.0"
"1530209381096";"-100.0"
"1530209381096";"-102.0"
"1530209381096";"-105.0"
"1530209381096";"-107.0"
"1530209381097";"-109.0"
"1530209381097";"-111.0"
"1530209381098";"-113.0"
"1530209381118";"-115.0"
"1530209381118";"-116.0"
"1530209381118";"-118.0"
"1530209381118";"-119.0"
"1530209381118";"-121.0"
"1530209381118";"-122.0"
"1530209381139";"-123.0"
"1530209381140";"-124.0"
"1530209381140";"-125.0"
"1530209381140";"-126.0"
"1530209381140";"-127.0"
"1530209381140";"-128.0"
"1530209381161";"-129.0"
"1530209381185";"-130.0"
"1530209381185";"-129.0"
"1530209381206";"-128.0"
"1530209381227";"-127.0"
"1530209381227";"-126.0"
"1530209381249";"-125.0"
"1530209381249";"-124.0"
"1530209381249";"-123.0"
"1530209381270";"-122.0"
"1530209381270";"-121.0"
"1530209381270";"-120.0"
"1530209381270";"-119.0"
"1530209381270";"-118.0"
"1530209381270";"-116.0"
"1530209381270";"-115.0"
"1530209381270";"-114.0"
"1530209381270";"-112.0"
"1530209381270";"-111.0"
"1530209381291";"-109.0"
"1530209381291";"-108.0"
"1530209381291";"-106.0"
"1530209381312";"-105.0"
"1530209381312";"-103.0"
"1530209381312";"-102.0"
"1530209381312";"-100.0"
"1530209381312";"-98.0"
"1530209381312";"-97.0"
"1530209381313";"-95.0"
"1530209381313";"-93.0"
"1530209381313";"-91.0"
"1530209381333";"-89.0"
"1530209381334";"-87.0"
"1530209381334";"-85.0"
"1530209381334";"-83.0"
"1530209381334";"-82.0"
"1530209381334";"-80.0"
"1530209381355";"-78.0"
"1530209381355";"-76.0"
"1530209381355";"-74.0"
"1530209381355";"-72.0"
"1530209381376";"-71.0"
"1530209381376";"-69.0"
"1530209381376";"-67.0"
"1530209381377";"-66.0"
"1530209381377";"-64.0"
"1530209381398";"-63.0"
"1530209381398";"-61.0"
"1530209381398";"-60.0"
"1530209381398";"-58.0"
"1530209381398";"-57.0"
"1530209381398";"-55.0"
"1530209381399";"-54.0"
"1530209381399";"-52.0"
"1530209381399";"-51.0"
"1530209381420";"-49.0"
"1530209381420";"-48.0"
"1530209381420";"-47.0"
"1530209381420";"-45.0"
"1530209381420";"-44.0"
"1530209381420";"-42.0"
"1530209381449";"-41.0"
"1530209381449";"-40.0"
"1530209381449";"-39.0"
"1530209381451";"-37.0"
"1530209381451";"-36.0"
"1530209381451";"-35.0"
"1530209381451";"-34.0"
"1530209381471";"-33.0"
"1530209381472";"-32.0"
"1530209381472";"-31.0"
"1530209381472";"-30.0"
"1530209381472";"-29.0"
"1530209381493";"-28.0"
"1530209381493";"-27.0"
"1530209381493";"-26.0"
"1530209381494";"-25.0"
"1530209381495";"-24.0"
"1530209381547";"-23.0"
"1530209381568";"-22.0"
"1530209381568";"-21.0"
"1530209381568";"-20.0"
"1530209381568";"-19.0"
"1530209381568";"-18.0"
"1530209381569";"-17.0"
"1530209381570";"-16.0"
"1530209381570";"-15.0"
"1530209381591";"-14.0"
"1530209381591";"-13.0"
"1530209381592";"-12.0"
"1530209381612";"-11.0"
"1530209381612";"-10.0"
"1530209381612";"-9.0"
"1530209381612";"-8.0"
"1530209381613";"-7.0"
"1530209381633";"-6.0"
"1530209381633";"-5.0"
"1530209381635";"-4.0"
"1530209381635";"-3.0"
"1530209381635";"-2.0"
"1530209381635";"-1.0"
"1530209381656";"0.0"
"1530209381656";"1.0"
"1530209381656";"3.0"
"1530209381656";"4.0"
"1530209381657";"5.0"
"1530209381657";"7.0"
"1530209381677";"9.0"
"1530209381678";"11.0"
"1530209381678";"13.0"
"1530209381678";"15.0"
"1530209381678";"17.0"
"1530209381678";"20.0"
"1530209381699";"22.0"
"1530209381699";"25.0"
"1530209381699";"27.0"
"1530209381721";"30.0"
"1530209381722";"33.0"
"1530209381722";"36.0"
"1530209381722";"39.0"
"1530209381722";"42.0"
"1530209381722";"45.0"
"1530209381722";"48.0"
"1530209381722";"51.0"
"1530209381743";"54.0"
"1530209381743";"57.0"
"1530209381743";"60.0"
"1530209381743";"62.0"
"1530209381743";"65.0"
"1530209381743";"67.0"
"1530209381744";"69.0"
"1530209381764";"71.0"
"1530209381764";"73.0"
"1530209381765";"75.0"
