"System Time Index","BVP Data"
"1529863319042","1.0"
"1529863319093","2.0"
"1529863319119","3.0"
"1529863319167","4.0"
"1529863319251","3.0"
"1529863319251","2.0"
"1529863319273","1.0"
"1529863319274","0.0"
"1529863319278","-1.0"
"1529863319279","-2.0"
"1529863319281","-3.0"
"1529863319282","-4.0"
"1529863319305","-5.0"
"1529863319352","-4.0"
"1529863319377","-5.0"
"1529863319400","-6.0"
"1529863319402","-7.0"
"1529863319426","-8.0"
"1529863319429","-9.0"
"1529863319452","-10.0"
"1529863319453","-9.0"
"1529863319454","-8.0"
"1529863319476","-7.0"
"1529863319478","-6.0"
"1529863319479","-5.0"
"1529863319501","-4.0"
"1529863319502","-3.0"
"1529863319503","-2.0"
"1529863319504","-1.0"
"1529863319526","0.0"
"1529863319527","1.0"
"1529863319528","2.0"
"1529863319558","3.0"
"1529863319559","4.0"
"1529863319581","5.0"
"1529863319630","6.0"
"1529863319678","7.0"
"1529863319726","8.0"
"1529863319771","9.0"
"1529863319824","7.0"
"1529863319825","6.0"
"1529863319825","5.0"
"1529863319825","4.0"
"1529863319846","2.0"
"1529863319846","1.0"
"1529863319847","0.0"
"1529863319847","-1.0"
"1529863319847","-2.0"
"1529863319848","-4.0"
"1529863319848","-5.0"
"1529863319848","-6.0"
"1529863319849","-7.0"
"1529863319849","-8.0"
"1529863319849","-9.0"
"1529863319871","-10.0"
"1529863319871","-11.0"
"1529863319872","-12.0"
"1529863319873","-14.0"
"1529863319874","-15.0"
"1529863319874","-16.0"
"1529863319875","-17.0"
"1529863319896","-19.0"
"1529863319896","-20.0"
"1529863319897","-21.0"
"1529863319897","-23.0"
"1529863319898","-24.0"
"1529863319898","-25.0"
"1529863319899","-26.0"
"1529863319899","-28.0"
"1529863319899","-29.0"
"1529863319920","-30.0"
"1529863319921","-31.0"
"1529863319921","-32.0"
"1529863319926","-33.0"
"1529863319946","-34.0"
"1529863319947","-35.0"
"1529863319948","-36.0"
"1529863319970","-35.0"
"1529863319970","-34.0"
"1529863319971","-33.0"
"1529863319972","-32.0"
"1529863319993","-31.0"
"1529863319993","-30.0"
"1529863320015","-29.0"
"1529863320015","-28.0"
"1529863320016","-27.0"
"1529863320037","-26.0"
"1529863320038","-25.0"
"1529863320038","-24.0"
"1529863320039","-23.0"
"1529863320060","-22.0"
"1529863320060","-21.0"
"1529863320083","-20.0"
"1529863320085","-19.0"
"1529863320108","-18.0"
"1529863320131","-17.0"
"1529863320155","-18.0"
"1529863320178","-19.0"
"1529863320179","-20.0"
"1529863320223","-19.0"
"1529863320224","-18.0"
"1529863320224","-17.0"
"1529863320246","-16.0"
"1529863320246","-15.0"
"1529863320247","-14.0"
"1529863320268","-13.0"
"1529863320269","-12.0"
"1529863320270","-11.0"
"1529863320270","-10.0"
"1529863320298","-9.0"
"1529863320298","-8.0"
"1529863320299","-7.0"
"1529863320299","-6.0"
"1529863320299","-5.0"
"1529863320299","-4.0"
"1529863320300","-3.0"
"1529863320300","-2.0"
"1529863320301","-1.0"
"1529863320301","0.0"
"1529863320322","1.0"
"1529863320322","2.0"
"1529863320323","3.0"
"1529863320344","4.0"
"1529863320345","5.0"
"1529863320345","6.0"
"1529863320387","5.0"
"1529863320408","4.0"
"1529863320410","3.0"
"1529863320410","2.0"
"1529863320432","1.0"
"1529863320433","0.0"
"1529863320454","-1.0"
"1529863320455","-2.0"
"1529863320456","-3.0"
"1529863320477","-4.0"
"1529863320478","-5.0"
"1529863320500","-6.0"
"1529863320502","-7.0"
"1529863320525","-8.0"
"1529863320547","-9.0"
"1529863320569","-10.0"
"1529863320570","-11.0"
"1529863320571","-12.0"
"1529863320572","-13.0"
"1529863320573","-14.0"
"1529863320594","-15.0"
"1529863320595","-16.0"
"1529863320637","-17.0"
"1529863320659","-18.0"
"1529863320661","-19.0"
"1529863320684","-20.0"
"1529863320684","-21.0"
"1529863320685","-22.0"
"1529863320686","-23.0"
"1529863320687","-24.0"
"1529863320709","-25.0"
"1529863320731","-26.0"
"1529863320754","-25.0"
"1529863320776","-24.0"
"1529863320798","-23.0"
"1529863320799","-22.0"
"1529863320820","-21.0"
"1529863320821","-20.0"
"1529863320821","-19.0"
"1529863320842","-18.0"
"1529863320843","-17.0"
"1529863320864","-16.0"
"1529863320864","-15.0"
"1529863320864","-14.0"
"1529863320865","-13.0"
"1529863320865","-12.0"
"1529863320865","-11.0"
"1529863320866","-10.0"
"1529863320886","-9.0"
"1529863320887","-8.0"
"1529863320887","-7.0"
"1529863320887","-6.0"
"1529863320888","-5.0"
"1529863320888","-4.0"
"1529863320909","-3.0"
"1529863320909","-2.0"
"1529863320910","-1.0"
"1529863320910","0.0"
"1529863320910","1.0"
"1529863320932","2.0"
"1529863320932","3.0"
"1529863320932","4.0"
"1529863320933","5.0"
"1529863320933","6.0"
"1529863320933","7.0"
"1529863320934","8.0"
"1529863320955","9.0"
"1529863320955","10.0"
"1529863320955","11.0"
"1529863320956","12.0"
"1529863320956","13.0"
"1529863320977","14.0"
"1529863320978","15.0"
"1529863320979","16.0"
"1529863321000","17.0"
"1529863321087","16.0"
"1529863321088","15.0"
"1529863321109","14.0"
"1529863321109","13.0"
"1529863321110","12.0"
"1529863321110","11.0"
"1529863321110","10.0"
"1529863321111","9.0"
"1529863321111","8.0"
"1529863321132","7.0"
"1529863321132","6.0"
"1529863321132","5.0"
"1529863321132","4.0"
"1529863321133","3.0"
"1529863321133","2.0"
"1529863321154","1.0"
"1529863321154","0.0"
"1529863321175","-1.0"
"1529863321175","-2.0"
"1529863321176","-3.0"
"1529863321176","-4.0"
"1529863321176","-5.0"
"1529863321177","-6.0"
"1529863321177","-7.0"
"1529863321198","-8.0"
"1529863321198","-9.0"
"1529863321199","-10.0"
"1529863321220","-11.0"
"1529863321221","-12.0"
"1529863321221","-13.0"
"1529863321244","-14.0"
"1529863321245","-15.0"
"1529863321266","-16.0"
"1529863321266","-17.0"
"1529863321287","-18.0"
"1529863321288","-19.0"
"1529863321288","-20.0"
"1529863321288","-21.0"
"1529863321289","-22.0"
"1529863321289","-23.0"
"1529863321289","-24.0"
"1529863321310","-25.0"
"1529863321311","-26.0"
"1529863321311","-27.0"
"1529863321311","-28.0"
"1529863321311","-29.0"
"1529863321311","-30.0"
"1529863321332","-31.0"
"1529863321333","-32.0"
"1529863321354","-33.0"
"1529863321354","-34.0"
"1529863321354","-35.0"
"1529863321355","-36.0"
"1529863321355","-37.0"
"1529863321376","-38.0"
"1529863321377","-39.0"
"1529863321377","-40.0"
"1529863321378","-41.0"
"1529863321378","-42.0"
"1529863321378","-43.0"
"1529863321379","-44.0"
"1529863321399","-45.0"
"1529863321400","-46.0"
"1529863321400","-47.0"
"1529863321421","-48.0"
"1529863321422","-49.0"
"1529863321464","-48.0"
"1529863321486","-47.0"
"1529863321486","-46.0"
"1529863321487","-45.0"
"1529863321487","-44.0"
"1529863321508","-43.0"
"1529863321508","-42.0"
"1529863321509","-41.0"
"1529863321509","-40.0"
"1529863321509","-39.0"
"1529863321509","-38.0"
"1529863321530","-37.0"
"1529863321531","-35.0"
"1529863321551","-34.0"
"1529863321552","-33.0"
"1529863321552","-31.0"
"1529863321552","-30.0"
"1529863321573","-28.0"
"1529863321573","-27.0"
"1529863321574","-25.0"
"1529863321574","-24.0"
"1529863321574","-22.0"
"1529863321574","-21.0"
"1529863321574","-19.0"
"1529863321575","-18.0"
"1529863321595","-16.0"
"1529863321595","-15.0"
"1529863321596","-13.0"
"1529863321617","-12.0"
"1529863321617","-11.0"
"1529863321617","-9.0"
"1529863321617","-8.0"
"1529863321617","-6.0"
"1529863321618","-5.0"
"1529863321618","-4.0"
"1529863321618","-3.0"
"1529863321618","-1.0"
"1529863321619","0.0"
"1529863321619","1.0"
"1529863321619","2.0"
"1529863321640","3.0"
"1529863321640","4.0"
"1529863321640","5.0"
"1529863321640","6.0"
"1529863321640","7.0"
"1529863321640","8.0"
"1529863321641","9.0"
"1529863321641","10.0"
"1529863321673","11.0"
"1529863321737","10.0"
"1529863321738","9.0"
"1529863321738","8.0"
"1529863321739","7.0"
"1529863321760","6.0"
"1529863321781","5.0"
"1529863321803","4.0"
"1529863321845","3.0"
"1529863321866","2.0"
"1529863321931","1.0"
"1529863321953","0.0"
"1529863322038","-1.0"
"1529863322039","-2.0"
"1529863322060","-3.0"
"1529863322081","-4.0"
"1529863322103","-3.0"
"1529863322125","-2.0"
"1529863322146","-1.0"
"1529863322147","0.0"
"1529863322147","1.0"
"1529863322148","2.0"
"1529863322168","3.0"
"1529863322169","4.0"
"1529863322169","5.0"
"1529863322169","6.0"
"1529863322170","7.0"
"1529863322170","8.0"
"1529863322170","9.0"
"1529863322170","10.0"
"1529863322191","11.0"
"1529863322191","12.0"
"1529863322191","13.0"
"1529863322212","14.0"
"1529863322212","15.0"
"1529863322213","16.0"
"1529863322213","17.0"
"1529863322213","18.0"
"1529863322213","19.0"
"1529863322213","20.0"
"1529863322213","21.0"
"1529863322234","22.0"
"1529863322298","23.0"
"1529863322382","24.0"
"1529863322426","23.0"
"1529863322426","22.0"
"1529863322427","21.0"
"1529863322448","20.0"
"1529863322448","19.0"
"1529863322449","18.0"
"1529863322449","17.0"
"1529863322449","16.0"
"1529863322470","15.0"
"1529863322470","14.0"
"1529863322491","13.0"
"1529863322492","12.0"
"1529863322512","11.0"
"1529863322513","10.0"
"1529863322535","9.0"
"1529863322557","8.0"
"1529863322578","7.0"
"1529863322626","6.0"
"1529863322668","5.0"
"1529863322670","4.0"
"1529863322692","3.0"
"1529863322713","2.0"
"1529863322755","3.0"
"1529863322755","4.0"
"1529863322776","5.0"
"1529863322776","6.0"
"1529863322777","7.0"
"1529863322777","8.0"
"1529863322777","9.0"
"1529863322798","10.0"
"1529863322798","11.0"
"1529863322799","12.0"
"1529863322819","13.0"
"1529863322820","14.0"
"1529863322820","15.0"
"1529863322841","16.0"
"1529863322841","17.0"
"1529863322841","18.0"
"1529863322841","19.0"
"1529863322862","20.0"
"1529863322863","21.0"
"1529863322863","22.0"
"1529863322885","23.0"
"1529863322885","24.0"
"1529863322951","23.0"
"1529863322972","22.0"
"1529863322972","21.0"
"1529863322973","20.0"
"1529863322993","19.0"
"1529863322994","18.0"
"1529863322994","17.0"
"1529863322994","16.0"
"1529863323015","15.0"
"1529863323016","14.0"
"1529863323016","13.0"
"1529863323036","12.0"
"1529863323037","11.0"
"1529863323037","10.0"
"1529863323058","9.0"
"1529863323059","8.0"
"1529863323059","7.0"
"1529863323080","6.0"
"1529863323081","5.0"
"1529863323082","4.0"
"1529863323082","3.0"
"1529863323103","2.0"
"1529863323104","1.0"
"1529863323104","0.0"
"1529863323125","-1.0"
"1529863323125","-2.0"
"1529863323125","-3.0"
"1529863323125","-4.0"
"1529863323146","-5.0"
"1529863323146","-6.0"
"1529863323167","-7.0"
"1529863323168","-8.0"
"1529863323189","-9.0"
"1529863323189","-10.0"
"1529863323210","-11.0"
"1529863323211","-12.0"
"1529863323232","-13.0"
"1529863323253","-14.0"
"1529863323274","-15.0"
"1529863323295","-16.0"
"1529863323317","-15.0"
"1529863323339","-16.0"
"1529863323361","-17.0"
"1529863323362","-18.0"
"1529863323403","-17.0"
"1529863323424","-16.0"
"1529863323424","-15.0"
"1529863323425","-14.0"
"1529863323425","-13.0"
"1529863323425","-12.0"
"1529863323425","-11.0"
"1529863323425","-10.0"
"1529863323446","-9.0"
"1529863323446","-8.0"
"1529863323446","-7.0"
"1529863323447","-6.0"
"1529863323447","-5.0"
"1529863323447","-4.0"
"1529863323468","-3.0"
"1529863323468","-2.0"
"1529863323468","-1.0"
"1529863323469","0.0"
"1529863323469","1.0"
"1529863323490","2.0"
"1529863323490","3.0"
"1529863323511","4.0"
"1529863323511","5.0"
"1529863323511","6.0"
"1529863323511","7.0"
"1529863323512","8.0"
"1529863323512","9.0"
"1529863323512","10.0"
"1529863323512","11.0"
"1529863323512","12.0"
"1529863323536","13.0"
"1529863323537","14.0"
"1529863323558","15.0"
"1529863323558","16.0"
"1529863323559","17.0"
"1529863323559","18.0"
"1529863323579","19.0"
"1529863323580","20.0"
"1529863323580","21.0"
"1529863323603","22.0"
"1529863323624","21.0"
"1529863323647","20.0"
"1529863323648","19.0"
"1529863323648","18.0"
"1529863323669","17.0"
"1529863323669","16.0"
"1529863323690","15.0"
"1529863323690","14.0"
"1529863323691","13.0"
"1529863323691","12.0"
"1529863323712","11.0"
"1529863323712","10.0"
"1529863323713","9.0"
"1529863323713","8.0"
"1529863323733","7.0"
"1529863323734","6.0"
"1529863323734","5.0"
"1529863323734","4.0"
"1529863323734","3.0"
"1529863323734","2.0"
"1529863323734","1.0"
"1529863323755","0.0"
"1529863323755","-1.0"
"1529863323756","-2.0"
"1529863323756","-3.0"
"1529863323776","-4.0"
"1529863323776","-5.0"
"1529863323777","-6.0"
"1529863323777","-7.0"
"1529863323777","-8.0"
"1529863323777","-9.0"
"1529863323777","-10.0"
"1529863323777","-11.0"
"1529863323777","-12.0"
"1529863323798","-13.0"
"1529863323798","-14.0"
"1529863323798","-15.0"
"1529863323819","-16.0"
"1529863323819","-17.0"
"1529863323820","-18.0"
"1529863323840","-19.0"
"1529863323841","-20.0"
"1529863323883","-19.0"
"1529863323927","-18.0"
"1529863323927","-17.0"
"1529863323927","-16.0"
"1529863323927","-15.0"
"1529863323928","-14.0"
"1529863323948","-13.0"
"1529863323949","-12.0"
"1529863323949","-11.0"
"1529863323949","-10.0"
"1529863323950","-9.0"
"1529863323970","-8.0"
"1529863323971","-7.0"
"1529863324012","-6.0"
"1529863324013","-5.0"
"1529863324013","-4.0"
"1529863324013","-3.0"
"1529863324034","-2.0"
"1529863324034","-1.0"
"1529863324034","0.0"
"1529863324055","1.0"
"1529863324055","2.0"
"1529863324076","3.0"
"1529863324077","4.0"
"1529863324077","5.0"
"1529863324077","6.0"
"1529863324078","7.0"
"1529863324078","8.0"
"1529863324098","9.0"
"1529863324099","10.0"
"1529863324099","11.0"
"1529863324099","12.0"
"1529863324099","13.0"
"1529863324120","14.0"
"1529863324120","15.0"
"1529863324120","16.0"
"1529863324121","17.0"
"1529863324142","18.0"
"1529863324142","19.0"
"1529863324142","20.0"
"1529863324143","21.0"
"1529863324164","22.0"
"1529863324164","23.0"
"1529863324186","24.0"
"1529863324208","25.0"
"1529863324210","24.0"
"1529863324231","23.0"
"1529863324251","22.0"
"1529863324252","21.0"
"1529863324252","20.0"
"1529863324272","19.0"
"1529863324273","18.0"
"1529863324294","17.0"
"1529863324294","16.0"
"1529863324294","15.0"
"1529863324294","14.0"
"1529863324294","13.0"
"1529863324294","12.0"
"1529863324315","11.0"
"1529863324315","10.0"
"1529863324315","9.0"
"1529863324316","8.0"
"1529863324316","7.0"
"1529863324336","6.0"
"1529863324336","5.0"
"1529863324336","4.0"
"1529863324337","3.0"
"1529863324357","2.0"
"1529863324358","1.0"
"1529863324358","0.0"
"1529863324358","-1.0"
"1529863324358","-2.0"
"1529863324358","-3.0"
"1529863324379","-4.0"
"1529863324380","-5.0"
"1529863324380","-6.0"
"1529863324380","-7.0"
"1529863324401","-8.0"
"1529863324401","-9.0"
"1529863324422","-10.0"
"1529863324423","-11.0"
"1529863324423","-12.0"
"1529863324423","-13.0"
"1529863324424","-14.0"
"1529863324445","-15.0"
"1529863324445","-16.0"
"1529863324445","-17.0"
"1529863324466","-18.0"
"1529863324466","-19.0"
"1529863324487","-20.0"
"1529863324488","-21.0"
"1529863324488","-22.0"
"1529863324509","-23.0"
"1529863324610","-22.0"
"1529863324631","-21.0"
"1529863324631","-20.0"
"1529863324652","-19.0"
"1529863324652","-18.0"
"1529863324653","-17.0"
"1529863324653","-16.0"
"1529863324673","-15.0"
"1529863324674","-14.0"
"1529863324695","-13.0"
"1529863324695","-12.0"
"1529863324695","-11.0"
"1529863324695","-10.0"
"1529863324695","-9.0"
"1529863324716","-8.0"
"1529863324717","-7.0"
"1529863324717","-6.0"
"1529863324717","-5.0"
"1529863324738","-4.0"
"1529863324738","-3.0"
"1529863324738","-1.0"
"1529863324738","0.0"
"1529863324738","1.0"
"1529863324738","2.0"
"1529863324739","3.0"
"1529863324739","4.0"
"1529863324760","5.0"
"1529863324760","7.0"
"1529863324760","8.0"
"1529863324760","9.0"
"1529863324761","10.0"
"1529863324761","11.0"
"1529863324782","12.0"
"1529863324783","14.0"
"1529863324783","15.0"
"1529863324783","16.0"
"1529863324783","17.0"
"1529863324783","18.0"
"1529863324784","19.0"
"1529863324784","20.0"
"1529863324784","21.0"
"1529863324784","22.0"
"1529863324805","23.0"
"1529863324805","24.0"
"1529863324805","25.0"
"1529863324805","26.0"
"1529863324806","27.0"
"1529863324806","28.0"
"1529863324847","29.0"
"1529863324927","30.0"
"1529863324970","31.0"
"1529863324970","30.0"
"1529863324991","29.0"
"1529863324991","28.0"
"1529863325012","27.0"
"1529863325013","26.0"
"1529863325013","25.0"
"1529863325013","24.0"
"1529863325034","23.0"
"1529863325034","22.0"
"1529863325034","21.0"
"1529863325055","20.0"
"1529863325056","19.0"
"1529863325076","18.0"
"1529863325077","17.0"
"1529863325077","16.0"
"1529863325098","15.0"
"1529863325098","14.0"
"1529863325119","13.0"
"1529863325146","12.0"
"1529863325167","11.0"
"1529863325168","10.0"
"1529863325189","9.0"
"1529863325190","8.0"
"1529863325211","7.0"
"1529863325232","6.0"
"1529863325233","5.0"
"1529863325253","4.0"
"1529863325274","3.0"
"1529863325316","4.0"
"1529863325337","5.0"
"1529863325337","6.0"
"1529863325358","7.0"
"1529863325359","8.0"
"1529863325359","9.0"
"1529863325359","10.0"
"1529863325379","11.0"
"1529863325379","12.0"
"1529863325380","13.0"
"1529863325380","14.0"
"1529863325400","15.0"
"1529863325400","16.0"
"1529863325400","17.0"
"1529863325401","18.0"
"1529863325421","19.0"
"1529863325422","20.0"
"1529863325422","21.0"
"1529863325422","22.0"
"1529863325422","23.0"
"1529863325422","24.0"
"1529863325443","25.0"
"1529863325443","26.0"
"1529863325443","27.0"
"1529863325443","28.0"
"1529863325443","29.0"
"1529863325464","30.0"
"1529863325464","31.0"
"1529863325485","32.0"
"1529863325645","33.0"
"1529863325668","32.0"
"1529863325689","31.0"
"1529863325689","30.0"
"1529863325690","29.0"
"1529863325690","28.0"
"1529863325690","27.0"
"1529863325690","26.0"
"1529863325690","25.0"
"1529863325690","24.0"
"1529863325691","23.0"
"1529863325691","22.0"
"1529863325691","21.0"
"1529863325691","20.0"
"1529863325691","19.0"
"1529863325691","18.0"
"1529863325713","17.0"
"1529863325713","16.0"
"1529863325713","15.0"
"1529863325713","14.0"
"1529863325713","13.0"
"1529863325713","12.0"
"1529863325734","11.0"
"1529863325734","10.0"
"1529863325735","9.0"
"1529863325735","8.0"
"1529863325755","7.0"
"1529863325776","6.0"
"1529863325776","5.0"
"1529863325797","4.0"
"1529863325819","3.0"
"1529863325819","2.0"
"1529863325840","1.0"
"1529863325840","0.0"
"1529863325861","-1.0"
"1529863325923","-2.0"
"1529863325924","-3.0"
"1529863325965","-4.0"
"1529863325986","-5.0"
"1529863326008","-4.0"
"1529863326029","-3.0"
"1529863326050","-2.0"
"1529863326050","-1.0"
"1529863326050","0.0"
"1529863326051","1.0"
"1529863326071","2.0"
"1529863326072","3.0"
"1529863326072","4.0"
"1529863326075","5.0"
"1529863326076","6.0"
"1529863326076","7.0"
"1529863326096","8.0"
"1529863326096","9.0"
"1529863326096","10.0"
"1529863326097","11.0"
"1529863326097","12.0"
"1529863326097","13.0"
"1529863326097","14.0"
"1529863326097","15.0"
"1529863326117","16.0"
"1529863326118","17.0"
"1529863326118","18.0"
"1529863326118","19.0"
"1529863326118","20.0"
"1529863326138","21.0"
"1529863326139","22.0"
"1529863326139","23.0"
"1529863326141","24.0"
"1529863326141","25.0"
"1529863326162","26.0"
"1529863326162","27.0"
"1529863326163","28.0"
"1529863326184","29.0"
"1529863326205","28.0"
"1529863326205","27.0"
"1529863326205","26.0"
"1529863326226","25.0"
"1529863326226","24.0"
"1529863326226","23.0"
"1529863326226","22.0"
"1529863326247","21.0"
"1529863326247","20.0"
"1529863326247","19.0"
"1529863326247","18.0"
"1529863326247","17.0"
"1529863326268","16.0"
"1529863326268","15.0"
"1529863326269","14.0"
"1529863326269","13.0"
"1529863326269","12.0"
"1529863326269","11.0"
"1529863326290","10.0"
"1529863326290","9.0"
"1529863326290","8.0"
"1529863326290","7.0"
"1529863326290","6.0"
"1529863326311","5.0"
"1529863326311","4.0"
"1529863326312","3.0"
"1529863326312","2.0"
"1529863326312","1.0"
"1529863326332","0.0"
"1529863326333","-1.0"
"1529863326355","-2.0"
"1529863326355","-3.0"
"1529863326355","-4.0"
"1529863326355","-5.0"
"1529863326376","-6.0"
"1529863326376","-7.0"
"1529863326376","-8.0"
"1529863326397","-9.0"
"1529863326397","-10.0"
"1529863326397","-11.0"
"1529863326397","-12.0"
"1529863326419","-13.0"
"1529863326419","-14.0"
"1529863326420","-15.0"
"1529863326441","-16.0"
"1529863326441","-17.0"
"1529863326462","-18.0"
"1529863326483","-19.0"
"1529863326504","-20.0"
"1529863326567","-21.0"
"1529863326608","-20.0"
"1529863326639","-19.0"
"1529863326660","-18.0"
"1529863326681","-17.0"
"1529863326702","-16.0"
"1529863326702","-15.0"
"1529863326724","-14.0"
"1529863326724","-13.0"
"1529863326724","-12.0"
"1529863326745","-11.0"
"1529863326746","-10.0"
"1529863326746","-9.0"
"1529863326746","-8.0"
"1529863326746","-7.0"
"1529863326746","-6.0"
"1529863326746","-5.0"
"1529863326747","-4.0"
"1529863326747","-3.0"
"1529863326747","-2.0"
"1529863326747","-1.0"
"1529863326768","0.0"
"1529863326768","1.0"
"1529863326768","2.0"
"1529863326769","3.0"
"1529863326769","4.0"
"1529863326789","5.0"
"1529863326789","6.0"
"1529863326790","7.0"
"1529863326790","8.0"
"1529863326790","9.0"
"1529863326790","10.0"
"1529863326810","12.0"
"1529863326811","13.0"
"1529863326811","14.0"
"1529863326832","15.0"
"1529863326832","16.0"
"1529863326832","17.0"
"1529863326832","18.0"
"1529863326832","19.0"
"1529863326832","20.0"
"1529863326832","21.0"
"1529863326833","22.0"
"1529863326833","23.0"
"1529863326853","24.0"
"1529863326853","25.0"
"1529863326854","26.0"
"1529863326854","27.0"
"1529863326854","28.0"
"1529863326854","29.0"
"1529863326854","30.0"
"1529863326875","31.0"
"1529863326875","32.0"
"1529863326875","33.0"
"1529863326897","34.0"
"1529863326962","33.0"
"1529863326962","32.0"
"1529863326962","31.0"
"1529863326983","30.0"
"1529863326983","29.0"
"1529863326983","28.0"
"1529863326983","27.0"
"1529863326984","26.0"
"1529863326984","25.0"
"1529863327004","24.0"
"1529863327005","23.0"
"1529863327005","22.0"
"1529863327005","21.0"
"1529863327026","20.0"
"1529863327026","19.0"
"1529863327026","18.0"
"1529863327047","17.0"
"1529863327047","16.0"
"1529863327047","15.0"
"1529863327047","14.0"
"1529863327068","13.0"
"1529863327068","12.0"
"1529863327089","11.0"
"1529863327089","10.0"
"1529863327090","9.0"
"1529863327110","8.0"
"1529863327111","7.0"
"1529863327111","6.0"
"1529863327132","5.0"
"1529863327132","4.0"
"1529863327132","3.0"
"1529863327153","2.0"
"1529863327153","1.0"
"1529863327174","0.0"
"1529863327216","-1.0"
"1529863327238","-2.0"
"1529863327259","-3.0"
"1529863327280","-4.0"
"1529863327280","-5.0"
"1529863327356","-6.0"
"1529863327358","-7.0"
"1529863327359","-8.0"
"1529863327380","-7.0"
"1529863327403","-6.0"
"1529863327403","-5.0"
"1529863327403","-4.0"
"1529863327403","-3.0"
"1529863327403","-2.0"
"1529863327403","-1.0"
"1529863327404","0.0"
"1529863327424","1.0"
"1529863327424","2.0"
"1529863327424","3.0"
"1529863327427","4.0"
"1529863327427","5.0"
"1529863327427","6.0"
"1529863327427","7.0"
"1529863327448","8.0"
"1529863327449","9.0"
"1529863327449","10.0"
"1529863327449","11.0"
"1529863327449","12.0"
"1529863327449","13.0"
"1529863327449","14.0"
"1529863327470","15.0"
"1529863327470","16.0"
"1529863327470","17.0"
"1529863327470","18.0"
"1529863327470","19.0"
"1529863327470","20.0"
"1529863327491","21.0"
"1529863327491","22.0"
"1529863327492","23.0"
"1529863327492","24.0"
"1529863327513","25.0"
"1529863327513","26.0"
"1529863327513","27.0"
"1529863327541","28.0"
"1529863327562","29.0"
"1529863327606","28.0"
"1529863327628","27.0"
"1529863327628","26.0"
"1529863327628","25.0"
"1529863327628","24.0"
"1529863327657","23.0"
"1529863327658","22.0"
"1529863327658","21.0"
"1529863327658","20.0"
"1529863327658","19.0"
"1529863327658","18.0"
"1529863327658","17.0"
"1529863327658","16.0"
"1529863327679","15.0"
"1529863327679","14.0"
"1529863327679","13.0"
"1529863327700","12.0"
"1529863327701","11.0"
"1529863327702","10.0"
"1529863327702","9.0"
"1529863327702","8.0"
"1529863327703","7.0"
"1529863327724","6.0"
"1529863327745","5.0"
"1529863327745","4.0"
"1529863327745","3.0"
"1529863327766","2.0"
"1529863327767","1.0"
"1529863327767","0.0"
"1529863327788","-1.0"
"1529863327788","-2.0"
"1529863327788","-3.0"
"1529863327809","-4.0"
"1529863327809","-5.0"
"1529863327809","-6.0"
"1529863327830","-7.0"
"1529863327851","-8.0"
"1529863327872","-9.0"
"1529863327914","-10.0"
"1529863327914","-11.0"
"1529863327935","-12.0"
"1529863327978","-13.0"
"1529863327978","-12.0"
"1529863327999","-11.0"
"1529863328021","-10.0"
"1529863328021","-9.0"
"1529863328041","-8.0"
"1529863328042","-7.0"
"1529863328042","-6.0"
"1529863328042","-5.0"
"1529863328042","-4.0"
"1529863328063","-3.0"
"1529863328063","-2.0"
"1529863328063","-1.0"
"1529863328063","0.0"
"1529863328063","1.0"
"1529863328084","2.0"
"1529863328085","3.0"
"1529863328085","4.0"
"1529863328085","5.0"
"1529863328085","6.0"
"1529863328085","7.0"
"1529863328106","8.0"
"1529863328106","9.0"
"1529863328106","10.0"
"1529863328107","11.0"
"1529863328107","12.0"
"1529863328107","13.0"
"1529863328127","14.0"
"1529863328127","15.0"
"1529863328127","16.0"
"1529863328128","17.0"
"1529863328128","18.0"
"1529863328128","19.0"
"1529863328151","20.0"
"1529863328151","21.0"
"1529863328152","22.0"
"1529863328152","23.0"
"1529863328172","24.0"
"1529863328173","25.0"
"1529863328215","24.0"
"1529863328236","23.0"
"1529863328237","22.0"
"1529863328237","21.0"
"1529863328237","20.0"
"1529863328258","19.0"
"1529863328259","18.0"
"1529863328279","17.0"
"1529863328282","16.0"
"1529863328282","15.0"
"1529863328303","14.0"
"1529863328303","13.0"
"1529863328303","12.0"
"1529863328304","11.0"
"1529863328304","10.0"
"1529863328325","9.0"
"1529863328325","8.0"
"1529863328325","7.0"
"1529863328325","6.0"
"1529863328346","5.0"
"1529863328347","4.0"
"1529863328367","3.0"
"1529863328367","2.0"
"1529863328368","1.0"
"1529863328368","0.0"
"1529863328388","-1.0"
"1529863328389","-2.0"
"1529863328410","-3.0"
"1529863328430","-4.0"
"1529863328431","-5.0"
"1529863328519","-4.0"
"1529863328620","-5.0"
"1529863328733","-4.0"
"1529863328734","-3.0"
"1529863328734","-2.0"
"1529863328734","-1.0"
"1529863328734","0.0"
"1529863328735","1.0"
"1529863328735","2.0"
"1529863328735","3.0"
"1529863328735","4.0"
"1529863328735","5.0"
"1529863328735","6.0"
"1529863328735","7.0"
"1529863328735","8.0"
"1529863328735","9.0"
"1529863328735","10.0"
"1529863328756","11.0"
"1529863328756","12.0"
"1529863328756","13.0"
"1529863328756","14.0"
"1529863328756","16.0"
"1529863328756","17.0"
"1529863328777","18.0"
"1529863328777","19.0"
"1529863328777","20.0"
"1529863328777","21.0"
"1529863328777","22.0"
"1529863328777","23.0"
"1529863328798","24.0"
"1529863328798","25.0"
"1529863328798","26.0"
"1529863328798","27.0"
"1529863328799","28.0"
"1529863328819","29.0"
"1529863328819","30.0"
"1529863328819","31.0"
"1529863328820","32.0"
"1529863328841","33.0"
"1529863328905","34.0"
"1529863328905","33.0"
"1529863328905","32.0"
"1529863328926","31.0"
"1529863328947","30.0"
"1529863328968","29.0"
"1529863328968","28.0"
"1529863328968","27.0"
"1529863328969","26.0"
"1529863328969","25.0"
"1529863328969","24.0"
"1529863328969","23.0"
"1529863328969","22.0"
"1529863328989","21.0"
"1529863328990","20.0"
"1529863328990","19.0"
"1529863329010","18.0"
"1529863329013","17.0"
"1529863329013","16.0"
"1529863329035","15.0"
"1529863329036","14.0"
"1529863329057","13.0"
"1529863329057","12.0"
"1529863329057","11.0"
"1529863329057","10.0"
"1529863329078","9.0"
"1529863329078","8.0"
"1529863329078","7.0"
"1529863329079","6.0"
"1529863329099","5.0"
"1529863329100","4.0"
"1529863329121","3.0"
"1529863329142","2.0"
"1529863329163","1.0"
"1529863329205","0.0"
"1529863329310","-1.0"
"1529863329373","0.0"
"1529863329394","1.0"
"1529863329395","2.0"
"1529863329395","3.0"
"1529863329417","4.0"
"1529863329417","5.0"
"1529863329418","6.0"
"1529863329418","7.0"
"1529863329418","8.0"
"1529863329418","9.0"
"1529863329439","10.0"
"1529863329439","11.0"
"1529863329440","12.0"
"1529863329440","13.0"
"1529863329440","14.0"
"1529863329440","15.0"
"1529863329461","16.0"
"1529863329461","17.0"
"1529863329461","18.0"
"1529863329461","19.0"
"1529863329461","20.0"
"1529863329461","21.0"
"1529863329483","22.0"
"1529863329484","23.0"
"1529863329484","24.0"
"1529863329484","26.0"
"1529863329505","27.0"
"1529863329505","28.0"
"1529863329505","29.0"
"1529863329505","30.0"
"1529863329505","31.0"
"1529863329505","32.0"
"1529863329547","33.0"
"1529863329609","34.0"
"1529863329651","33.0"
"1529863329691","32.0"
"1529863329713","31.0"
"1529863329713","30.0"
"1529863329714","29.0"
"1529863329714","28.0"
"1529863329717","27.0"
"1529863329717","26.0"
"1529863329738","25.0"
"1529863329738","24.0"
"1529863329738","23.0"
"1529863329738","22.0"
"1529863329739","21.0"
"1529863329739","20.0"
"1529863329739","19.0"
"1529863329759","18.0"
"1529863329760","17.0"
"1529863329760","16.0"
"1529863329781","15.0"
"1529863329781","14.0"
"1529863329781","13.0"
"1529863329781","12.0"
"1529863329781","11.0"
"1529863329781","10.0"
"1529863329781","9.0"
"1529863329781","8.0"
"1529863329802","7.0"
"1529863329803","6.0"
"1529863329803","5.0"
"1529863329806","4.0"
"1529863329828","3.0"
"1529863329828","2.0"
"1529863329849","1.0"
"1529863329870","0.0"
"1529863329914","-1.0"
"1529863329956","-2.0"
"1529863329957","-3.0"
"1529863330020","-2.0"
"1529863330082","-3.0"
"1529863330103","-2.0"
"1529863330103","-1.0"
"1529863330103","0.0"
"1529863330123","1.0"
"1529863330124","2.0"
"1529863330124","3.0"
"1529863330124","4.0"
"1529863330124","5.0"
"1529863330145","6.0"
"1529863330145","7.0"
"1529863330145","8.0"
"1529863330145","9.0"
"1529863330145","10.0"
"1529863330145","11.0"
"1529863330145","12.0"
"1529863330166","13.0"
"1529863330166","14.0"
"1529863330166","15.0"
"1529863330166","16.0"
"1529863330167","17.0"
"1529863330167","18.0"
"1529863330167","20.0"
"1529863330167","21.0"
"1529863330167","22.0"
"1529863330188","23.0"
"1529863330188","24.0"
"1529863330189","25.0"
"1529863330189","26.0"
"1529863330189","27.0"
"1529863330189","28.0"
"1529863330189","29.0"
"1529863330210","30.0"
"1529863330210","31.0"
"1529863330210","32.0"
"1529863330210","33.0"
"1529863330210","32.0"
"1529863330211","31.0"
"1529863330211","30.0"
"1529863330211","29.0"
"1529863330232","27.0"
"1529863330232","26.0"
"1529863330232","24.0"
"1529863330232","22.0"
"1529863330233","20.0"
"1529863330233","18.0"
"1529863330233","15.0"
"1529863330233","12.0"
"1529863330254","9.0"
"1529863330254","6.0"
"1529863330254","3.0"
"1529863330274","0.0"
"1529863330275","-3.0"
"1529863330275","-7.0"
"1529863330275","-10.0"
"1529863330275","-14.0"
"1529863330296","-18.0"
"1529863330296","-21.0"
"1529863330296","-25.0"
"1529863330296","-30.0"
"1529863330296","-34.0"
"1529863330296","-38.0"
"1529863330317","-42.0"
"1529863330317","-46.0"
"1529863330317","-50.0"
"1529863330318","-55.0"
"1529863330318","-59.0"
"1529863330318","-63.0"
"1529863330318","-67.0"
"1529863330318","-71.0"
"1529863330318","-76.0"
"1529863330339","-80.0"
"1529863330339","-84.0"
"1529863330339","-88.0"
"1529863330339","-92.0"
"1529863330340","-96.0"
"1529863330340","-99.0"
"1529863330340","-103.0"
"1529863330360","-106.0"
"1529863330360","-110.0"
"1529863330360","-114.0"
"1529863330361","-117.0"
"1529863330361","-121.0"
"1529863330361","-124.0"
"1529863330382","-127.0"
"1529863330382","-130.0"
"1529863330382","-133.0"
"1529863330382","-136.0"
"1529863330382","-138.0"
"1529863330382","-141.0"
"1529863330403","-144.0"
"1529863330403","-146.0"
"1529863330403","-149.0"
"1529863330403","-151.0"
"1529863330403","-154.0"
"1529863330405","-156.0"
"1529863330425","-158.0"
"1529863330425","-160.0"
"1529863330425","-162.0"
"1529863330426","-164.0"
"1529863330426","-166.0"
"1529863330426","-168.0"
"1529863330426","-170.0"
"1529863330426","-172.0"
"1529863330447","-174.0"
"1529863330447","-175.0"
"1529863330447","-177.0"
"1529863330448","-178.0"
"1529863330448","-180.0"
"1529863330448","-181.0"
"1529863330448","-182.0"
"1529863330469","-183.0"
"1529863330494","-182.0"
"1529863330494","-181.0"
"1529863330494","-180.0"
"1529863330494","-178.0"
"1529863330494","-177.0"
"1529863330495","-175.0"
"1529863330495","-173.0"
"1529863330495","-171.0"
"1529863330516","-169.0"
"1529863330516","-167.0"
"1529863330516","-165.0"
"1529863330517","-162.0"
"1529863330517","-160.0"
"1529863330517","-157.0"
"1529863330537","-154.0"
"1529863330538","-151.0"
"1529863330538","-148.0"
"1529863330560","-145.0"
"1529863330560","-142.0"
"1529863330560","-139.0"
"1529863330560","-136.0"
"1529863330561","-133.0"
"1529863330561","-130.0"
"1529863330561","-127.0"
"1529863330561","-124.0"
"1529863330561","-121.0"
"1529863330561","-118.0"
"1529863330581","-115.0"
"1529863330582","-112.0"
"1529863330582","-110.0"
"1529863330602","-107.0"
"1529863330602","-104.0"
"1529863330602","-101.0"
"1529863330603","-98.0"
"1529863330603","-95.0"
"1529863330603","-93.0"
"1529863330623","-90.0"
"1529863330627","-87.0"
"1529863330627","-84.0"
"1529863330627","-82.0"
"1529863330627","-79.0"
"1529863330628","-77.0"
"1529863330628","-74.0"
"1529863330628","-72.0"
"1529863330628","-69.0"
"1529863330654","-67.0"
"1529863330655","-64.0"
"1529863330655","-62.0"
"1529863330676","-60.0"
"1529863330676","-58.0"
"1529863330676","-56.0"
"1529863330676","-54.0"
"1529863330676","-51.0"
"1529863330676","-49.0"
"1529863330676","-47.0"
"1529863330697","-46.0"
"1529863330697","-44.0"
"1529863330697","-42.0"
"1529863330698","-40.0"
"1529863330698","-39.0"
"1529863330698","-37.0"
"1529863330698","-36.0"
"1529863330698","-34.0"
"1529863330698","-33.0"
"1529863330698","-32.0"
"1529863330698","-30.0"
"1529863330719","-29.0"
"1529863330719","-28.0"
"1529863330719","-26.0"
"1529863330719","-25.0"
"1529863330719","-24.0"
"1529863330719","-23.0"
"1529863330720","-22.0"
"1529863330740","-21.0"
"1529863330740","-20.0"
"1529863330741","-19.0"
"1529863330741","-18.0"
"1529863330741","-17.0"
"1529863330766","-16.0"
"1529863330766","-15.0"
"1529863330766","-14.0"
"1529863330766","-13.0"
"1529863330766","-12.0"
"1529863330766","-11.0"
"1529863330767","-10.0"
"1529863330767","-9.0"
"1529863330767","-8.0"
"1529863330767","-7.0"
"1529863330788","-6.0"
"1529863330789","-5.0"
"1529863330789","-4.0"
"1529863330789","-3.0"
"1529863330789","-2.0"
"1529863330789","-1.0"
"1529863330789","0.0"
"1529863330789","1.0"
"1529863330812","2.0"
"1529863330813","4.0"
"1529863330813","5.0"
"1529863330813","6.0"
"1529863330813","7.0"
"1529863330834","8.0"
"1529863330834","9.0"
"1529863330834","10.0"
"1529863330835","11.0"
"1529863330855","12.0"
"1529863330855","13.0"
"1529863330855","14.0"
"1529863330856","15.0"
"1529863330856","16.0"
"1529863330856","17.0"
"1529863330856","18.0"
"1529863330856","19.0"
"1529863330876","20.0"
"1529863330878","21.0"
"1529863330878","22.0"
"1529863330878","23.0"
"1529863330899","24.0"
"1529863330899","25.0"
"1529863330920","26.0"
"1529863330920","27.0"
"1529863330941","26.0"
"1529863330962","25.0"
"1529863330983","24.0"
"1529863330984","23.0"
"1529863330984","22.0"
"1529863331005","21.0"
"1529863331005","20.0"
"1529863331006","19.0"
"1529863331009","18.0"
"1529863331030","17.0"
"1529863331030","16.0"
"1529863331031","15.0"
"1529863331031","14.0"
"1529863331051","13.0"
"1529863331052","12.0"
"1529863331052","11.0"
"1529863331052","10.0"
"1529863331052","9.0"
"1529863331073","8.0"
"1529863331073","7.0"
"1529863331075","6.0"
"1529863331075","5.0"
"1529863331075","4.0"
"1529863331096","3.0"
"1529863331096","2.0"
"1529863331096","1.0"
"1529863331117","0.0"
"1529863331117","-1.0"
"1529863331138","-2.0"
"1529863331139","-3.0"
"1529863331160","-4.0"
"1529863331160","-5.0"
"1529863331181","-6.0"
"1529863331182","-7.0"
"1529863331202","-8.0"
"1529863331224","-9.0"
"1529863331248","-10.0"
"1529863331292","-9.0"
"1529863331376","-8.0"
"1529863331440","-7.0"
"1529863331461","-6.0"
"1529863331462","-5.0"
"1529863331483","-4.0"
"1529863331483","-3.0"
"1529863331483","-2.0"
"1529863331504","-1.0"
"1529863331505","0.0"
"1529863331505","1.0"
"1529863331505","2.0"
"1529863331526","3.0"
"1529863331558","4.0"
"1529863331558","5.0"
"1529863331558","6.0"
"1529863331579","7.0"
"1529863331579","8.0"
"1529863331579","9.0"
"1529863331652","10.0"
"1529863331652","11.0"
"1529863331673","12.0"
"1529863331673","13.0"
"1529863331673","14.0"
"1529863331673","15.0"
"1529863331674","16.0"
"1529863331674","17.0"
"1529863331674","18.0"
"1529863331674","19.0"
"1529863331674","20.0"
"1529863331674","21.0"
"1529863331674","22.0"
"1529863331674","23.0"
"1529863331695","24.0"
"1529863331695","25.0"
"1529863331695","26.0"
"1529863331696","27.0"
"1529863331696","28.0"
"1529863331696","29.0"
"1529863331696","30.0"
"1529863331696","31.0"
"1529863331696","32.0"
"1529863331697","31.0"
"1529863331698","30.0"
"1529863331718","29.0"
"1529863331719","28.0"
"1529863331719","27.0"
"1529863331719","26.0"
"1529863331719","25.0"
"1529863331739","24.0"
"1529863331740","23.0"
"1529863331762","22.0"
"1529863331762","21.0"
"1529863331762","20.0"
"1529863331762","19.0"
"1529863331762","18.0"
"1529863331784","17.0"
"1529863331784","16.0"
"1529863331804","15.0"
"1529863331805","14.0"
"1529863331805","13.0"
"1529863331826","12.0"
"1529863331826","11.0"
"1529863331847","10.0"
"1529863331868","9.0"
"1529863331868","8.0"
"1529863331890","7.0"
"1529863331892","6.0"
"1529863331892","5.0"
"1529863331913","4.0"
"1529863331913","3.0"
"1529863331913","2.0"
"1529863331935","1.0"
"1529863331935","0.0"
"1529863331956","-1.0"
"1529863331977","-2.0"
"1529863332124","-1.0"
"1529863332190","0.0"
"1529863332211","1.0"
"1529863332211","2.0"
"1529863332211","3.0"
"1529863332211","4.0"
"1529863332213","5.0"
"1529863332214","6.0"
"1529863332214","7.0"
"1529863332235","8.0"
"1529863332235","9.0"
"1529863332235","10.0"
"1529863332235","11.0"
"1529863332235","12.0"
"1529863332235","13.0"
"1529863332235","14.0"
"1529863332235","15.0"
"1529863332256","16.0"
"1529863332256","17.0"
"1529863332256","18.0"
"1529863332256","19.0"
"1529863332256","20.0"
"1529863332256","21.0"
"1529863332257","22.0"
"1529863332277","23.0"
"1529863332279","24.0"
"1529863332299","25.0"
"1529863332300","26.0"
"1529863332300","27.0"
"1529863332300","28.0"
"1529863332300","29.0"
"1529863332300","30.0"
"1529863332321","31.0"
"1529863332321","32.0"
"1529863332321","33.0"
"1529863332342","34.0"
"1529863332363","33.0"
"1529863332363","32.0"
"1529863332384","31.0"
"1529863332384","30.0"
"1529863332405","29.0"
"1529863332405","28.0"
"1529863332408","27.0"
"1529863332429","26.0"
"1529863332429","25.0"
"1529863332430","24.0"
"1529863332430","23.0"
"1529863332430","22.0"
"1529863332430","21.0"
"1529863332451","20.0"
"1529863332451","19.0"
"1529863332472","18.0"
"1529863332472","17.0"
"1529863332472","16.0"
"1529863332472","15.0"
"1529863332472","14.0"
"1529863332497","13.0"
"1529863332498","12.0"
"1529863332498","11.0"
"1529863332519","10.0"
"1529863332519","9.0"
"1529863332520","8.0"
"1529863332540","7.0"
"1529863332541","6.0"
"1529863332541","5.0"
"1529863332563","4.0"
"1529863332583","3.0"
"1529863332584","2.0"
"1529863332605","1.0"
"1529863332626","0.0"
"1529863332648","-1.0"
"1529863332648","-2.0"
"1529863332673","-3.0"
"1529863332728","-4.0"
"1529863332729","-5.0"
"1529863332773","-6.0"
"1529863332815","-7.0"
"1529863332836","-8.0"
"1529863332858","-7.0"
"1529863332880","-6.0"
"1529863332880","-5.0"
"1529863332901","-4.0"
"1529863332901","-3.0"
"1529863332902","-2.0"
"1529863332902","-1.0"
"1529863332902","0.0"
"1529863332923","1.0"
"1529863332923","2.0"
"1529863332923","3.0"
"1529863332923","4.0"
"1529863332923","5.0"
"1529863332924","6.0"
"1529863332944","7.0"
"1529863332944","8.0"
"1529863332945","9.0"
"1529863332945","10.0"
"1529863332945","11.0"
"1529863332965","12.0"
"1529863332966","13.0"
"1529863332966","14.0"
"1529863332966","15.0"
"1529863332966","16.0"
"1529863332966","17.0"
"1529863332987","18.0"
"1529863332987","19.0"
"1529863332987","20.0"
"1529863333008","21.0"
"1529863333008","22.0"
"1529863333031","23.0"
"1529863333031","24.0"
"1529863333072","23.0"
"1529863333073","22.0"
"1529863333093","21.0"
"1529863333094","20.0"
"1529863333094","19.0"
"1529863333114","18.0"
"1529863333115","17.0"
"1529863333115","16.0"
"1529863333115","15.0"
"1529863333136","14.0"
"1529863333136","13.0"
"1529863333136","12.0"
"1529863333158","11.0"
"1529863333158","10.0"
"1529863333158","9.0"
"1529863333179","8.0"
"1529863333179","7.0"
"1529863333179","6.0"
"1529863333199","5.0"
"1529863333199","4.0"
"1529863333200","3.0"
"1529863333200","2.0"
"1529863333220","1.0"
"1529863333241","0.0"
"1529863333262","-1.0"
"1529863333262","-2.0"
"1529863333262","-3.0"
"1529863333285","-4.0"
"1529863333306","-5.0"
"1529863333327","-6.0"
"1529863333327","-7.0"
"1529863333347","-8.0"
"1529863333348","-9.0"
"1529863333369","-10.0"
"1529863333389","-11.0"
"1529863333454","-10.0"
"1529863333475","-9.0"
"1529863333559","-8.0"
"1529863333581","-7.0"
"1529863333607","-6.0"
"1529863333628","-5.0"
"1529863333629","-4.0"
"1529863333649","-3.0"
"1529863333650","-2.0"
"1529863333670","-1.0"
"1529863333670","0.0"
"1529863333691","1.0"
"1529863333691","2.0"
"1529863333691","3.0"
"1529863333691","4.0"
"1529863333691","5.0"
"1529863333691","6.0"
"1529863333692","7.0"
"1529863333692","8.0"
"1529863333692","9.0"
"1529863333692","10.0"
"1529863333713","11.0"
"1529863333713","12.0"
"1529863333713","13.0"
"1529863333714","14.0"
"1529863333714","15.0"
"1529863333714","16.0"
"1529863333715","17.0"
"1529863333715","18.0"
"1529863333715","19.0"
"1529863333735","20.0"
"1529863333736","21.0"
"1529863333736","22.0"
"1529863333736","23.0"
"1529863333757","24.0"
"1529863333757","25.0"
"1529863333799","24.0"
"1529863333800","23.0"
"1529863333824","22.0"
"1529863333824","21.0"
"1529863333824","20.0"
"1529863333824","19.0"
"1529863333845","18.0"
"1529863333846","17.0"
"1529863333886","16.0"
"1529863333907","15.0"
"1529863333907","14.0"
"1529863333928","13.0"
"1529863333928","12.0"
"1529863333929","11.0"
"1529863333929","10.0"
"1529863333929","9.0"
"1529863333929","8.0"
"1529863333930","7.0"
"1529863333951","6.0"
"1529863333951","5.0"
"1529863333972","4.0"
"1529863333972","3.0"
"1529863334015","2.0"
"1529863334057","1.0"
"1529863334100","0.0"
"1529863334289","1.0"
"1529863334310","2.0"
"1529863334331","3.0"
"1529863334331","4.0"
"1529863334352","5.0"
"1529863334352","6.0"
"1529863334352","7.0"
"1529863334352","8.0"
"1529863334353","9.0"
"1529863334353","10.0"
"1529863334373","11.0"
"1529863334373","12.0"
"1529863334373","13.0"
"1529863334373","14.0"
"1529863334394","15.0"
"1529863334395","16.0"
"1529863334395","17.0"
"1529863334396","18.0"
"1529863334396","19.0"
"1529863334396","20.0"
"1529863334417","21.0"
"1529863334417","22.0"
"1529863334417","23.0"
"1529863334417","24.0"
"1529863334438","25.0"
"1529863334439","26.0"
"1529863334460","27.0"
"1529863334460","28.0"
"1529863334460","29.0"
"1529863334564","28.0"
"1529863334565","27.0"
"1529863334585","26.0"
"1529863334586","25.0"
"1529863334607","24.0"
"1529863334609","23.0"
"1529863334609","22.0"
"1529863334609","21.0"
"1529863334609","20.0"
"1529863334630","19.0"
"1529863334630","18.0"
"1529863334630","17.0"
"1529863334630","16.0"
"1529863334630","15.0"
"1529863334631","14.0"
"1529863334632","13.0"
"1529863334632","12.0"
"1529863334653","11.0"
"1529863334673","10.0"
"1529863334674","9.0"
"1529863334674","8.0"
"1529863334674","7.0"
"1529863334695","6.0"
"1529863334695","5.0"
"1529863334716","4.0"
"1529863334716","3.0"
"1529863334738","2.0"
"1529863334759","1.0"
"1529863334780","0.0"
"1529863334801","-1.0"
"1529863334803","-2.0"
"1529863334844","-3.0"
"1529863334887","-4.0"
"1529863334928","-5.0"
"1529863334950","-6.0"
"1529863335012","-5.0"
"1529863335013","-4.0"
"1529863335034","-3.0"
"1529863335034","-2.0"
"1529863335034","-1.0"
"1529863335034","0.0"
"1529863335055","1.0"
"1529863335055","2.0"
"1529863335055","3.0"
"1529863335055","4.0"
"1529863335076","5.0"
"1529863335076","6.0"
"1529863335076","7.0"
"1529863335077","8.0"
"1529863335097","9.0"
"1529863335098","10.0"
"1529863335098","11.0"
"1529863335098","12.0"
"1529863335098","13.0"
"1529863335098","14.0"
"1529863335119","15.0"
"1529863335119","16.0"
"1529863335119","17.0"
"1529863335119","18.0"
"1529863335140","19.0"
"1529863335140","20.0"
"1529863335140","21.0"
"1529863335140","22.0"
"1529863335161","23.0"
"1529863335182","24.0"
"1529863335182","25.0"
"1529863335182","26.0"
"1529863335183","27.0"
"1529863335204","28.0"
"1529863335225","27.0"
"1529863335246","26.0"
"1529863335246","25.0"
"1529863335267","24.0"
"1529863335267","23.0"
"1529863335288","22.0"
"1529863335288","21.0"
"1529863335288","20.0"
"1529863335309","19.0"
"1529863335309","18.0"
"1529863335309","17.0"
"1529863335330","16.0"
"1529863335330","15.0"
"1529863335330","14.0"
"1529863335351","13.0"
"1529863335353","12.0"
"1529863335354","11.0"
"1529863335374","10.0"
"1529863335375","9.0"
"1529863335375","8.0"
"1529863335375","7.0"
"1529863335416","6.0"
"1529863335437","5.0"
"1529863335438","4.0"
"1529863335438","3.0"
"1529863335438","2.0"
"1529863335459","1.0"
"1529863335459","0.0"
"1529863335482","-1.0"
"1529863335503","-2.0"
"1529863335503","-3.0"
"1529863335523","-4.0"
"1529863335592","-5.0"
"1529863335614","-6.0"
"1529863335635","-7.0"
"1529863335678","-8.0"
"1529863335678","-7.0"
"1529863335699","-8.0"
"1529863335699","-7.0"
"1529863335700","-8.0"
"1529863335720","-7.0"
"1529863335721","-6.0"
"1529863335741","-5.0"
"1529863335762","-4.0"
"1529863335763","-3.0"
"1529863335763","-2.0"
"1529863335763","-1.0"
"1529863335783","0.0"
"1529863335784","1.0"
"1529863335784","2.0"
"1529863335784","3.0"
"1529863335784","4.0"
"1529863335805","5.0"
"1529863335805","6.0"
"1529863335807","7.0"
"1529863335828","8.0"
"1529863335828","9.0"
"1529863335828","10.0"
"1529863335828","11.0"
"1529863335849","12.0"
"1529863335849","13.0"
"1529863335849","14.0"
"1529863335849","15.0"
"1529863335870","16.0"
"1529863335870","17.0"
"1529863335891","18.0"
"1529863335912","19.0"
"1529863335932","18.0"
"1529863335954","17.0"
"1529863335954","16.0"
"1529863335954","15.0"
"1529863335954","14.0"
"1529863335975","13.0"
"1529863335976","12.0"
"1529863335976","11.0"
"1529863335996","10.0"
"1529863335997","9.0"
"1529863336017","8.0"
"1529863336018","7.0"
"1529863336018","6.0"
"1529863336018","5.0"
"1529863336039","4.0"
"1529863336039","3.0"
"1529863336039","2.0"
"1529863336060","1.0"
"1529863336061","0.0"
"1529863336083","-1.0"
"1529863336104","-2.0"
"1529863336125","-3.0"
"1529863336146","-4.0"
"1529863336188","-5.0"
"1529863336211","-4.0"
"1529863336273","-3.0"
"1529863336315","-4.0"
"1529863336336","-5.0"
"1529863336358","-6.0"
"1529863336379","-7.0"
"1529863336380","-8.0"
"1529863336421","-9.0"
"1529863336463","-8.0"
"1529863336484","-7.0"
"1529863336484","-6.0"
"1529863336484","-5.0"
"1529863336505","-4.0"
"1529863336505","-3.0"
"1529863336505","-2.0"
"1529863336506","-1.0"
"1529863336506","0.0"
"1529863336526","1.0"
"1529863336526","2.0"
"1529863336526","3.0"
"1529863336578","4.0"
"1529863336578","5.0"
"1529863336599","6.0"
"1529863336599","7.0"
"1529863336600","8.0"
"1529863336638","9.0"
"1529863336659","10.0"
"1529863336660","11.0"
"1529863336660","12.0"
"1529863336660","13.0"
"1529863336683","12.0"
"1529863336683","11.0"
"1529863336704","10.0"
"1529863336704","9.0"
"1529863336705","8.0"
"1529863336707","7.0"
"1529863336707","6.0"
"1529863336707","5.0"
"1529863336707","4.0"
"1529863336707","3.0"
"1529863336707","2.0"
"1529863336728","1.0"
"1529863336728","0.0"
"1529863336728","-1.0"
"1529863336749","-2.0"
"1529863336749","-3.0"
"1529863336750","-4.0"
"1529863336750","-5.0"
"1529863336751","-6.0"
"1529863336751","-7.0"
"1529863336772","-8.0"
"1529863336772","-9.0"
"1529863336772","-10.0"
"1529863336772","-11.0"
"1529863336793","-12.0"
"1529863336793","-13.0"
"1529863336813","-14.0"
"1529863336814","-15.0"
"1529863336814","-16.0"
"1529863336835","-17.0"
"1529863336835","-18.0"
"1529863336856","-19.0"
"1529863336877","-20.0"
"1529863336878","-21.0"
"1529863336920","-22.0"
"1529863336984","-23.0"
"1529863337033","-22.0"
"1529863337054","-21.0"
"1529863337075","-20.0"
"1529863337096","-19.0"
"1529863337117","-18.0"
"1529863337138","-17.0"
"1529863337138","-16.0"
"1529863337160","-15.0"
"1529863337160","-14.0"
"1529863337160","-13.0"
"1529863337160","-12.0"
"1529863337181","-11.0"
"1529863337181","-10.0"
"1529863337182","-9.0"
"1529863337202","-8.0"
"1529863337203","-7.0"
"1529863337203","-6.0"
"1529863337203","-5.0"
"1529863337203","-4.0"
"1529863337203","-3.0"
"1529863337203","-2.0"
"1529863337205","-1.0"
"1529863337205","0.0"
"1529863337226","1.0"
"1529863337226","2.0"
"1529863337227","3.0"
"1529863337227","4.0"
"1529863337227","5.0"
"1529863337227","6.0"
"1529863337248","7.0"
"1529863337248","8.0"
"1529863337248","9.0"
"1529863337249","10.0"
"1529863337249","11.0"
"1529863337249","12.0"
"1529863337269","13.0"
"1529863337270","14.0"
"1529863337290","15.0"
"1529863337290","16.0"
"1529863337291","17.0"
"1529863337291","18.0"
"1529863337291","19.0"
"1529863337291","20.0"
"1529863337291","21.0"
"1529863337312","22.0"
"1529863337312","23.0"
"1529863337333","24.0"
"1529863337355","23.0"
"1529863337355","22.0"
"1529863337376","21.0"
"1529863337397","20.0"
"1529863337398","19.0"
"1529863337419","18.0"
"1529863337419","17.0"
"1529863337419","16.0"
"1529863337420","15.0"
"1529863337441","14.0"
"1529863337441","13.0"
"1529863337442","12.0"
"1529863337462","11.0"
"1529863337462","10.0"
"1529863337483","9.0"
"1529863337504","8.0"
"1529863337525","7.0"
"1529863337525","6.0"
"1529863337545","5.0"
"1529863337566","4.0"
"1529863337647","3.0"
"1529863337691","2.0"
"1529863337816","3.0"
"1529863337880","4.0"
"1529863337880","5.0"
"1529863337901","6.0"
"1529863337901","7.0"
"1529863337901","8.0"
"1529863337921","9.0"
"1529863337922","10.0"
"1529863337922","11.0"
"1529863337922","12.0"
"1529863337943","13.0"
"1529863337943","14.0"
"1529863337944","15.0"
"1529863337964","16.0"
"1529863337965","17.0"
"1529863337965","18.0"
"1529863337965","19.0"
"1529863337965","20.0"
"1529863337986","21.0"
"1529863337986","22.0"
"1529863337986","23.0"
"1529863337986","24.0"
"1529863338015","25.0"
"1529863338036","26.0"
"1529863338057","27.0"
"1529863338058","28.0"
"1529863338058","29.0"
"1529863338058","30.0"
"1529863338058","29.0"
"1529863338081","28.0"
"1529863338102","27.0"
"1529863338102","26.0"
"1529863338123","25.0"
"1529863338123","24.0"
"1529863338123","23.0"
"1529863338164","22.0"
"1529863338166","21.0"
"1529863338187","20.0"
"1529863338187","19.0"
"1529863338187","18.0"
"1529863338188","17.0"
"1529863338209","16.0"
"1529863338210","15.0"
"1529863338211","14.0"
"1529863338232","13.0"
"1529863338253","12.0"
"1529863338274","11.0"
"1529863338274","10.0"
"1529863338295","9.0"
"1529863338316","8.0"
"1529863338337","7.0"
"1529863338358","6.0"
"1529863338379","5.0"
"1529863338423","4.0"
"1529863338444","3.0"
"1529863338466","2.0"
"1529863338529","3.0"
"1529863338573","4.0"
"1529863338614","5.0"
"1529863338616","6.0"
"1529863338616","7.0"
"1529863338637","8.0"
"1529863338637","9.0"
"1529863338638","10.0"
"1529863338638","11.0"
"1529863338671","12.0"
"1529863338671","13.0"
"1529863338692","14.0"
"1529863338692","15.0"
"1529863338692","16.0"
"1529863338693","17.0"
"1529863338714","18.0"
"1529863338714","19.0"
"1529863338714","20.0"
"1529863338714","21.0"
"1529863338736","22.0"
"1529863338736","23.0"
"1529863338736","24.0"
"1529863338736","25.0"
"1529863338757","26.0"
"1529863338761","27.0"
"1529863338802","26.0"
"1529863338803","25.0"
"1529863338803","24.0"
"1529863338803","23.0"
"1529863338803","21.0"
"1529863338803","19.0"
"1529863338803","17.0"
"1529863338824","15.0"
"1529863338824","13.0"
"1529863338824","10.0"
"1529863338824","8.0"
"1529863338824","5.0"
"1529863338824","2.0"
"1529863338845","0.0"
"1529863338845","-3.0"
"1529863338845","-7.0"
"1529863338845","-10.0"
"1529863338845","-14.0"
"1529863338845","-17.0"
"1529863338866","-21.0"
"1529863338866","-24.0"
"1529863338866","-28.0"
"1529863338866","-32.0"
"1529863338866","-36.0"
"1529863338866","-40.0"
"1529863338867","-44.0"
"1529863338888","-48.0"
"1529863338889","-52.0"
"1529863338889","-56.0"
"1529863338889","-60.0"
"1529863338890","-64.0"
"1529863338912","-67.0"
"1529863338913","-71.0"
"1529863338913","-75.0"
"1529863338913","-79.0"
"1529863338913","-83.0"
"1529863338913","-87.0"
"1529863338914","-90.0"
"1529863338914","-94.0"
"1529863338914","-98.0"
"1529863338936","-101.0"
"1529863338937","-104.0"
"1529863338937","-108.0"
"1529863338938","-111.0"
"1529863338938","-114.0"
"1529863338939","-117.0"
"1529863338939","-120.0"
"1529863338939","-124.0"
"1529863338939","-127.0"
"1529863338939","-130.0"
"1529863338960","-133.0"
"1529863338960","-136.0"
"1529863338960","-138.0"
"1529863338981","-141.0"
"1529863338981","-143.0"
"1529863338981","-145.0"
"1529863338981","-148.0"
"1529863338982","-151.0"
"1529863338982","-153.0"
"1529863339003","-155.0"
"1529863339003","-158.0"
"1529863339003","-160.0"
"1529863339004","-162.0"
"1529863339024","-164.0"
"1529863339025","-165.0"
"1529863339025","-167.0"
"1529863339025","-169.0"
"1529863339025","-170.0"
"1529863339025","-172.0"
"1529863339025","-174.0"
"1529863339025","-176.0"
"1529863339026","-177.0"
"1529863339026","-179.0"
"1529863339026","-180.0"
"1529863339026","-182.0"
"1529863339047","-183.0"
"1529863339047","-184.0"
"1529863339047","-185.0"
"1529863339047","-184.0"
"1529863339068","-183.0"
"1529863339068","-182.0"
"1529863339068","-181.0"
"1529863339089","-179.0"
"1529863339090","-178.0"
"1529863339090","-176.0"
"1529863339091","-174.0"
"1529863339091","-172.0"
"1529863339091","-170.0"
"1529863339091","-167.0"
"1529863339112","-165.0"
"1529863339113","-162.0"
"1529863339113","-159.0"
"1529863339113","-156.0"
"1529863339113","-153.0"
"1529863339113","-150.0"
"1529863339134","-147.0"
"1529863339134","-144.0"
"1529863339134","-141.0"
"1529863339134","-137.0"
"1529863339134","-134.0"
"1529863339155","-131.0"
"1529863339156","-128.0"
"1529863339156","-124.0"
"1529863339156","-121.0"
"1529863339156","-118.0"
"1529863339156","-114.0"
"1529863339156","-111.0"
"1529863339157","-107.0"
"1529863339157","-104.0"
"1529863339157","-101.0"
"1529863339177","-98.0"
"1529863339178","-94.0"
"1529863339178","-91.0"
"1529863339178","-88.0"
"1529863339178","-85.0"
"1529863339178","-82.0"
"1529863339199","-78.0"
"1529863339199","-75.0"
"1529863339199","-72.0"
"1529863339199","-70.0"
"1529863339199","-67.0"
"1529863339199","-64.0"
"1529863339200","-61.0"
"1529863339220","-59.0"
"1529863339221","-56.0"
"1529863339221","-53.0"
"1529863339221","-51.0"
"1529863339221","-49.0"
"1529863339242","-46.0"
"1529863339242","-44.0"
"1529863339242","-41.0"
"1529863339242","-39.0"
"1529863339242","-37.0"
"1529863339242","-35.0"
"1529863339242","-33.0"
"1529863339263","-31.0"
"1529863339264","-29.0"
"1529863339264","-27.0"
"1529863339264","-25.0"
"1529863339264","-23.0"
"1529863339285","-22.0"
"1529863339285","-20.0"
"1529863339286","-19.0"
"1529863339287","-17.0"
"1529863339287","-16.0"
"1529863339287","-14.0"
"1529863339287","-13.0"
"1529863339308","-11.0"
"1529863339308","-10.0"
"1529863339308","-9.0"
"1529863339308","-7.0"
"1529863339308","-6.0"
"1529863339308","-5.0"
"1529863339308","-4.0"
"1529863339309","-2.0"
"1529863339309","-1.0"
"1529863339329","0.0"
"1529863339330","2.0"
"1529863339330","3.0"
"1529863339330","4.0"
"1529863339330","5.0"
"1529863339351","6.0"
"1529863339351","7.0"
"1529863339351","8.0"
"1529863339351","9.0"
"1529863339351","10.0"
"1529863339372","11.0"
"1529863339372","12.0"
"1529863339372","13.0"
"1529863339372","14.0"
"1529863339372","15.0"
"1529863339372","16.0"
"1529863339393","17.0"
"1529863339393","18.0"
"1529863339393","19.0"
"1529863339414","20.0"
"1529863339414","21.0"
"1529863339415","22.0"
"1529863339415","23.0"
"1529863339436","24.0"
"1529863339436","25.0"
"1529863339457","26.0"
"1529863339479","25.0"
"1529863339521","24.0"
"1529863339521","23.0"
"1529863339521","22.0"
"1529863339542","21.0"
"1529863339543","20.0"
"1529863339543","19.0"
"1529863339543","18.0"
"1529863339543","17.0"
"1529863339572","16.0"
"1529863339593","15.0"
"1529863339593","14.0"
"1529863339594","13.0"
"1529863339594","12.0"
"1529863339594","11.0"
"1529863339627","10.0"
"1529863339648","9.0"
"1529863339649","8.0"
"1529863339649","7.0"
"1529863339649","6.0"
"1529863339670","5.0"
"1529863339670","4.0"
"1529863339691","3.0"
"1529863339693","2.0"
"1529863339714","1.0"
"1529863339715","0.0"
"1529863339736","-1.0"
"1529863339759","-2.0"
"1529863339781","-3.0"
"1529863339801","-4.0"
"1529863339864","-3.0"
"1529863339990","-4.0"
"1529863340011","-3.0"
"1529863340052","-2.0"
"1529863340053","-1.0"
"1529863340079","0.0"
"1529863340100","1.0"
"1529863340101","2.0"
"1529863340101","3.0"
"1529863340101","4.0"
"1529863340101","5.0"
"1529863340101","6.0"
"1529863340122","7.0"
"1529863340143","8.0"
"1529863340143","9.0"
"1529863340143","10.0"
"1529863340144","11.0"
"1529863340144","12.0"
"1529863340164","13.0"
"1529863340165","14.0"
"1529863340186","15.0"
"1529863340186","16.0"
"1529863340228","15.0"
"1529863340301","14.0"
"1529863340321","13.0"
"1529863340322","12.0"
"1529863340344","11.0"
"1529863340344","10.0"
"1529863340345","9.0"
"1529863340345","8.0"
"1529863340345","7.0"
"1529863340366","6.0"
"1529863340367","5.0"
"1529863340368","4.0"
"1529863340368","3.0"
"1529863340368","2.0"
"1529863340389","1.0"
"1529863340389","0.0"
"1529863340430","-1.0"
"1529863340431","-2.0"
"1529863340452","-3.0"
"1529863340473","-4.0"
"1529863340496","-5.0"
"1529863340563","-6.0"
"1529863340585","-5.0"
"1529863340714","-6.0"
"1529863340756","-5.0"
"1529863340777","-4.0"
"1529863340777","-3.0"
"1529863340798","-2.0"
"1529863340798","-1.0"
"1529863340799","0.0"
"1529863340819","1.0"
"1529863340840","2.0"
"1529863340840","3.0"
"1529863340840","4.0"
"1529863340840","5.0"
"1529863340841","6.0"
"1529863340861","7.0"
"1529863340861","8.0"
"1529863340882","9.0"
"1529863340882","10.0"
"1529863340883","11.0"
"1529863340903","12.0"
"1529863340924","13.0"
"1529863340988","12.0"
"1529863340988","11.0"
"1529863340988","10.0"
"1529863341009","9.0"
"1529863341010","8.0"
"1529863341031","7.0"
"1529863341032","6.0"
"1529863341052","5.0"
"1529863341052","4.0"
"1529863341073","3.0"
"1529863341073","2.0"
"1529863341094","1.0"
"1529863341266","2.0"
"1529863341289","3.0"
"1529863341310","4.0"
"1529863341373","5.0"
"1529863341456","4.0"
"1529863341477","5.0"
"1529863341497","6.0"
"1529863341498","7.0"
"1529863341519","8.0"
"1529863341519","9.0"
"1529863341540","10.0"
"1529863341540","11.0"
"1529863341571","12.0"
"1529863341592","13.0"
"1529863341613","14.0"
"1529863341613","15.0"
"1529863341638","16.0"
"1529863341659","17.0"
"1529863341659","18.0"
"1529863341680","19.0"
"1529863341681","18.0"
"1529863341681","17.0"
"1529863341737","16.0"
"1529863341759","15.0"
"1529863341759","14.0"
"1529863341759","13.0"
"1529863341780","12.0"
"1529863341781","11.0"
"1529863341781","10.0"
"1529863341781","9.0"
"1529863341802","8.0"
"1529863341825","7.0"
"1529863341825","6.0"
"1529863341846","5.0"
"1529863341867","4.0"
"1529863341889","3.0"
"1529863341910","2.0"
"1529863341931","1.0"
"1529863341993","0.0"
"1529863342181","1.0"
"1529863342202","2.0"
"1529863342202","3.0"
"1529863342223","4.0"
"1529863342244","5.0"
"1529863342245","6.0"
"1529863342245","7.0"
"1529863342265","8.0"
"1529863342266","9.0"
"1529863342266","10.0"
"1529863342287","11.0"
"1529863342287","12.0"
"1529863342287","13.0"
"1529863342308","14.0"
"1529863342329","15.0"
"1529863342330","16.0"
"1529863342330","17.0"
"1529863342351","18.0"
"1529863342392","17.0"
"1529863342415","16.0"
"1529863342436","15.0"
"1529863342458","14.0"
"1529863342458","13.0"
"1529863342479","12.0"
"1529863342480","11.0"
"1529863342480","10.0"
"1529863342501","9.0"
"1529863342522","8.0"
"1529863342552","7.0"
"1529863342573","6.0"
"1529863342593","5.0"
"1529863342615","4.0"
"1529863342636","3.0"
"1529863342657","2.0"
"1529863342677","1.0"
"1529863342702","0.0"
"1529863342725","-1.0"
"1529863342766","-2.0"
"1529863342767","-3.0"
"1529863342851","-4.0"
"1529863342893","-5.0"
"1529863342914","-4.0"
"1529863342936","-3.0"
"1529863342957","-2.0"
"1529863342957","-1.0"
"1529863342957","0.0"
"1529863342978","1.0"
"1529863342999","2.0"
"1529863342999","3.0"
"1529863342999","4.0"
"1529863342999","5.0"
"1529863343020","6.0"
"1529863343020","7.0"
"1529863343041","8.0"
"1529863343062","9.0"
"1529863343062","10.0"
"1529863343104","9.0"
"1529863343124","8.0"
"1529863343145","7.0"
"1529863343166","6.0"
"1529863343166","5.0"
"1529863343166","4.0"
"1529863343187","3.0"
"1529863343208","2.0"
"1529863343230","1.0"
"1529863343250","0.0"
"1529863343294","-1.0"
"1529863343315","-2.0"
"1529863343357","-3.0"
"1529863343420","-4.0"
"1529863343443","-3.0"
"1529863343464","-4.0"
"1529863343464","-3.0"
"1529863343692","-2.0"
"1529863343692","-1.0"
"1529863343692","0.0"
"1529863343714","1.0"
"1529863343714","2.0"
"1529863343715","3.0"
"1529863343735","4.0"
"1529863343756","5.0"
"1529863343756","6.0"
"1529863343777","7.0"
"1529863343777","8.0"
"1529863343819","9.0"
"1529863343842","8.0"
"1529863343863","7.0"
"1529863343884","6.0"
"1529863343884","5.0"
"1529863343905","4.0"
"1529863343905","3.0"
"1529863343926","2.0"
"1529863343926","1.0"
"1529863343927","0.0"
"1529863343949","-1.0"
"1529863343971","-2.0"
"1529863343971","-3.0"
"1529863343992","-4.0"
"1529863343992","-5.0"
"1529863343993","-6.0"
"1529863344013","-7.0"
"1529863344037","-8.0"
"1529863344037","-9.0"
"1529863344037","-10.0"
"1529863344057","-11.0"
"1529863344163","-10.0"
"1529863344184","-9.0"
"1529863344226","-8.0"
"1529863344247","-7.0"
"1529863344268","-6.0"
"1529863344312","-5.0"
"1529863344313","-4.0"
"1529863344334","-3.0"
"1529863344355","-2.0"
"1529863344375","-1.0"
"1529863344376","0.0"
"1529863344397","1.0"
"1529863344417","2.0"
"1529863344418","3.0"
"1529863344439","4.0"
"1529863344439","5.0"
"1529863344439","6.0"
"1529863344440","7.0"
"1529863344440","8.0"
"1529863344461","9.0"
"1529863344461","10.0"
"1529863344461","11.0"
"1529863344461","12.0"
"1529863344482","13.0"
"1529863344503","14.0"
"1529863344524","15.0"
"1529863344565","14.0"
"1529863344587","13.0"
"1529863344607","12.0"
"1529863344608","11.0"
"1529863344608","10.0"
"1529863344629","9.0"
"1529863344630","8.0"
"1529863344650","7.0"
"1529863344671","6.0"
"1529863344692","5.0"
"1529863344713","4.0"
"1529863344714","3.0"
"1529863344716","2.0"
"1529863344737","1.0"
"1529863344738","0.0"
"1529863344781","-1.0"
"1529863344845","-2.0"
"1529863344888","-3.0"
"1529863344889","-2.0"
"1529863344972","-1.0"
"1529863345055","0.0"
"1529863345097","1.0"
"1529863345118","2.0"
"1529863345119","3.0"
"1529863345139","4.0"
"1529863345140","5.0"
"1529863345140","6.0"
"1529863345140","7.0"
"1529863345140","8.0"
"1529863345161","9.0"
"1529863345161","10.0"
"1529863345161","11.0"
"1529863345187","12.0"
"1529863345208","13.0"
"1529863345209","14.0"
"1529863345209","15.0"
"1529863345230","16.0"
"1529863345251","17.0"
"1529863345272","16.0"
"1529863345295","15.0"
"1529863345317","14.0"
"1529863345317","13.0"
"1529863345338","12.0"
"1529863345338","11.0"
"1529863345339","10.0"
"1529863345360","9.0"
"1529863345360","8.0"
"1529863345406","7.0"
"1529863345447","6.0"
"1529863345490","5.0"
"1529863345564","4.0"
"1529863345661","3.0"
"1529863345706","2.0"
"1529863345706","1.0"
"1529863345727","0.0"
"1529863345769","1.0"
"1529863345790","2.0"
"1529863345811","3.0"
"1529863345832","4.0"
"1529863345833","5.0"
"1529863345833","6.0"
"1529863345833","7.0"
"1529863345855","8.0"
"1529863345855","9.0"
"1529863345876","10.0"
"1529863345876","11.0"
"1529863345876","12.0"
"1529863345897","13.0"
"1529863345897","14.0"
"1529863345918","15.0"
"1529863345918","16.0"
"1529863345940","17.0"
"1529863346002","16.0"
"1529863346002","15.0"
"1529863346023","14.0"
"1529863346023","13.0"
"1529863346044","12.0"
"1529863346044","11.0"
"1529863346065","10.0"
"1529863346086","9.0"
"1529863346107","8.0"
"1529863346108","7.0"
"1529863346108","6.0"
"1529863346108","5.0"
"1529863346129","4.0"
"1529863346129","3.0"
"1529863346129","2.0"
"1529863346129","1.0"
"1529863346150","0.0"
"1529863346150","-1.0"
"1529863346171","-2.0"
"1529863346191","-3.0"
"1529863346212","-4.0"
"1529863346254","-5.0"
"1529863346254","-6.0"
"1529863346275","-7.0"
"1529863346276","-8.0"
"1529863346297","-9.0"
"1529863346297","-10.0"
"1529863346318","-11.0"
"1529863346319","-12.0"
"1529863346319","-13.0"
"1529863346362","-14.0"
"1529863346362","-15.0"
"1529863346426","-14.0"
"1529863346468","-13.0"
"1529863346468","-14.0"
"1529863346491","-13.0"
"1529863346512","-12.0"
"1529863346533","-11.0"
"1529863346553","-10.0"
"1529863346574","-9.0"
"1529863346574","-8.0"
"1529863346575","-7.0"
"1529863346595","-6.0"
"1529863346595","-5.0"
"1529863346595","-4.0"
"1529863346595","-3.0"
"1529863346596","-2.0"
"1529863346620","-1.0"
"1529863346641","0.0"
"1529863346641","1.0"
"1529863346642","2.0"
"1529863346642","3.0"
"1529863346642","4.0"
"1529863346663","5.0"
"1529863346684","6.0"
"1529863346727","5.0"
"1529863346748","4.0"
"1529863346748","3.0"
"1529863346769","2.0"
"1529863346769","1.0"
"1529863346790","0.0"
"1529863346812","-1.0"
"1529863346812","-2.0"
"1529863346812","-3.0"
"1529863346833","-4.0"
"1529863346834","-5.0"
"1529863346854","-6.0"
"1529863346855","-7.0"
"1529863346875","-8.0"
"1529863346897","-9.0"
"1529863346898","-10.0"
"1529863346941","-11.0"
"1529863346985","-12.0"
"1529863347028","-11.0"
"1529863347049","-10.0"
"1529863347070","-9.0"
"1529863347133","-8.0"
"1529863347197","-7.0"
"1529863347220","-6.0"
"1529863347240","-5.0"
"1529863347241","-4.0"
"1529863347282","-3.0"
"1529863347283","-2.0"
"1529863347283","-1.0"
"1529863347305","0.0"
"1529863347305","1.0"
"1529863347305","2.0"
"1529863347326","3.0"
"1529863347347","4.0"
"1529863347347","5.0"
"1529863347347","6.0"
"1529863347348","7.0"
"1529863347368","8.0"
"1529863347390","9.0"
"1529863347431","8.0"
"1529863347453","7.0"
"1529863347474","6.0"
"1529863347474","5.0"
"1529863347495","4.0"
"1529863347516","3.0"
"1529863347558","2.0"
"1529863347585","1.0"
"1529863347627","0.0"
"1529863347673","-1.0"
"1529863347716","-2.0"
"1529863347800","-3.0"
"1529863347821","-2.0"
"1529863347862","-3.0"
"1529863347907","-4.0"
"1529863347950","-3.0"
"1529863347971","-2.0"
"1529863348012","-1.0"
"1529863348013","0.0"
"1529863348033","1.0"
"1529863348034","2.0"
"1529863348034","3.0"
"1529863348054","4.0"
"1529863348055","5.0"
"1529863348055","6.0"
"1529863348055","7.0"
"1529863348076","8.0"
"1529863348097","9.0"
"1529863348097","10.0"
"1529863348098","11.0"
"1529863348118","12.0"
"1529863348119","13.0"
"1529863348160","12.0"
"1529863348181","11.0"
"1529863348182","10.0"
"1529863348182","9.0"
"1529863348203","8.0"
"1529863348224","7.0"
"1529863348224","6.0"
"1529863348245","5.0"
"1529863348245","4.0"
"1529863348246","3.0"
"1529863348246","2.0"
"1529863348266","1.0"
"1529863348287","0.0"
"1529863348350","-1.0"
"1529863348411","-2.0"
"1529863348535","-1.0"
"1529863348581","0.0"
"1529863348717","1.0"
"1529863348718","2.0"
"1529863348718","3.0"
"1529863348738","4.0"
"1529863348738","5.0"
"1529863348739","6.0"
"1529863348759","7.0"
"1529863348760","8.0"
"1529863348760","9.0"
"1529863348780","10.0"
"1529863348780","11.0"
"1529863348780","12.0"
"1529863348801","13.0"
"1529863348801","14.0"
"1529863348801","15.0"
"1529863348821","16.0"
"1529863348842","17.0"
"1529863348843","18.0"
"1529863348863","17.0"
"1529863348884","16.0"
"1529863348884","15.0"
"1529863348904","14.0"
"1529863348905","13.0"
"1529863348925","12.0"
"1529863348946","11.0"
"1529863348946","10.0"
"1529863348946","9.0"
"1529863348968","8.0"
"1529863348968","7.0"
"1529863348968","6.0"
"1529863348989","5.0"
"1529863348989","4.0"
"1529863348989","3.0"
"1529863349010","2.0"
"1529863349010","1.0"
"1529863349030","0.0"
"1529863349051","-1.0"
"1529863349092","-2.0"
"1529863349154","-3.0"
"1529863349196","-2.0"
"1529863349237","-1.0"
"1529863349279","-2.0"
"1529863349320","-3.0"
"1529863349382","-2.0"
"1529863349403","-1.0"
"1529863349423","0.0"
"1529863349444","1.0"
"1529863349464","2.0"
"1529863349465","3.0"
"1529863349465","4.0"
"1529863349465","5.0"
"1529863349465","6.0"
"1529863349485","7.0"
"1529863349486","8.0"
"1529863349506","9.0"
"1529863349527","10.0"
"1529863349527","11.0"
"1529863349568","12.0"
"1529863349630","11.0"
"1529863349651","10.0"
"1529863349651","9.0"
"1529863349651","8.0"
"1529863349651","7.0"
"1529863349692","6.0"
"1529863349692","5.0"
"1529863349692","4.0"
"1529863349713","3.0"
"1529863349713","2.0"
"1529863349713","1.0"
"1529863349713","0.0"
"1529863349734","-1.0"
"1529863349734","-2.0"
"1529863349755","-3.0"
"1529863349776","-4.0"
"1529863349776","-5.0"
"1529863349796","-6.0"
"1529863349797","-7.0"
"1529863349817","-8.0"
"1529863349817","-9.0"
"1529863349817","-10.0"
"1529863349838","-11.0"
"1529863349859","-12.0"
"1529863349920","-13.0"
"1529863349983","-12.0"
"1529863350003","-11.0"
"1529863350045","-10.0"
"1529863350066","-9.0"
"1529863350108","-8.0"
"1529863350108","-7.0"
"1529863350108","-6.0"
"1529863350129","-5.0"
"1529863350129","-4.0"
"1529863350150","-3.0"
"1529863350150","-2.0"
"1529863350150","-1.0"
"1529863350170","0.0"
"1529863350171","1.0"
"1529863350194","2.0"
"1529863350215","3.0"
"1529863350215","4.0"
"1529863350215","5.0"
"1529863350216","6.0"
"1529863350236","7.0"
"1529863350236","8.0"
"1529863350236","9.0"
"1529863350257","10.0"
"1529863350320","9.0"
"1529863350340","8.0"
"1529863350340","7.0"
"1529863350362","6.0"
"1529863350382","5.0"
"1529863350383","4.0"
"1529863350403","3.0"
"1529863350403","2.0"
"1529863350403","1.0"
"1529863350424","0.0"
"1529863350445","-1.0"
"1529863350466","-2.0"
"1529863350466","-3.0"
"1529863350487","-4.0"
"1529863350487","-5.0"
"1529863350508","-6.0"
"1529863350549","-5.0"
"1529863350611","-4.0"
"1529863350714","-3.0"
"1529863350756","-2.0"
"1529863350776","-3.0"
"1529863350797","-2.0"
"1529863350818","-1.0"
"1529863350839","0.0"
"1529863350859","1.0"
"1529863350880","2.0"
"1529863350880","3.0"
"1529863350901","4.0"
"1529863350901","5.0"
"1529863350922","6.0"
"1529863350922","7.0"
"1529863350922","8.0"
"1529863350943","9.0"
"1529863350964","10.0"
"1529863350965","11.0"
"1529863350965","12.0"
"1529863350986","13.0"
"1529863351006","12.0"
"1529863351048","11.0"
"1529863351069","10.0"
"1529863351089","9.0"
"1529863351110","8.0"
"1529863351110","7.0"
"1529863351131","6.0"
"1529863351131","5.0"
"1529863351152","4.0"
"1529863351152","3.0"
"1529863351193","2.0"
"1529863351214","1.0"
"1529863351318","2.0"
"1529863351360","1.0"
"1529863351508","0.0"
"1529863351609","1.0"
"1529863351629","2.0"
"1529863351650","3.0"
"1529863351650","4.0"
"1529863351650","5.0"
"1529863351650","6.0"
"1529863351671","7.0"
"1529863351671","8.0"
"1529863351672","9.0"
"1529863351692","10.0"
"1529863351692","11.0"
"1529863351693","12.0"
"1529863351693","13.0"
"1529863351735","12.0"
"1529863351755","11.0"
"1529863351756","10.0"
"1529863351756","9.0"
"1529863351777","8.0"
"1529863351798","7.0"
"1529863351819","6.0"
"1529863351819","5.0"
"1529863351840","4.0"
"1529863351841","3.0"
"1529863351841","2.0"
"1529863351841","1.0"
"1529863351844","0.0"
"1529863351865","-1.0"
"1529863351866","-2.0"
"1529863351887","-3.0"
"1529863351887","-4.0"
"1529863351908","-5.0"
"1529863351908","-6.0"
"1529863351908","-7.0"
"1529863351929","-8.0"
"1529863352101","-7.0"
"1529863352184","-6.0"
"1529863352206","-5.0"
"1529863352249","-4.0"
"1529863352291","-3.0"
"1529863352291","-2.0"
"1529863352312","-1.0"
"1529863352312","0.0"
"1529863352333","1.0"
"1529863352354","2.0"
"1529863352355","3.0"
"1529863352355","4.0"
"1529863352376","5.0"
"1529863352377","6.0"
"1529863352398","7.0"
"1529863352399","8.0"
"1529863352420","9.0"
"1529863352420","10.0"
"1529863352482","9.0"
"1529863352504","8.0"
"1529863352565","7.0"
"1529863352586","6.0"
"1529863352586","5.0"
"1529863352607","4.0"
"1529863352607","3.0"
"1529863352607","2.0"
"1529863352628","1.0"
"1529863352654","0.0"
"1529863352675","-1.0"
"1529863352675","-2.0"
"1529863352696","-3.0"
"1529863352843","-2.0"
"1529863352864","-1.0"
"1529863352906","0.0"
"1529863352947","-1.0"
"1529863352969","-2.0"
"1529863352969","-3.0"
"1529863352969","-4.0"
"1529863352990","-5.0"
"1529863353032","-4.0"
"1529863353032","-3.0"
"1529863353063","-2.0"
"1529863353063","-1.0"
"1529863353084","0.0"
"1529863353105","1.0"
"1529863353105","0.0"
"1529863353126","-1.0"
"1529863353126","-2.0"
"1529863353126","-3.0"
"1529863353127","-4.0"
"1529863353127","-5.0"
"1529863353148","-7.0"
"1529863353148","-8.0"
"1529863353148","-9.0"
"1529863353149","-10.0"
"1529863353149","-12.0"
"1529863353149","-13.0"
"1529863353149","-15.0"
"1529863353149","-16.0"
"1529863353149","-17.0"
"1529863353170","-19.0"
"1529863353170","-20.0"
"1529863353170","-21.0"
"1529863353170","-22.0"
"1529863353170","-21.0"
"1529863353170","-20.0"
"1529863353191","-19.0"
"1529863353192","-18.0"
"1529863353192","-17.0"
"1529863353212","-15.0"
"1529863353212","-14.0"
"1529863353213","-12.0"
"1529863353213","-10.0"
"1529863353213","-8.0"
"1529863353213","-5.0"
"1529863353213","-4.0"
"1529863353213","-2.0"
"1529863353213","-1.0"
"1529863353234","0.0"
"1529863353255","-1.0"
"1529863353256","-2.0"
"1529863353276","-3.0"
"1529863353276","-4.0"
"1529863353276","-5.0"
"1529863353277","-6.0"
"1529863353277","-7.0"
"1529863353278","-8.0"
"1529863353299","-9.0"
"1529863353299","-10.0"
"1529863353299","-11.0"
"1529863353299","-12.0"
"1529863353320","-14.0"
"1529863353320","-15.0"
"1529863353320","-16.0"
"1529863353320","-17.0"
"1529863353320","-18.0"
"1529863353341","-19.0"
"1529863353341","-20.0"
"1529863353363","-21.0"
"1529863353363","-22.0"
"1529863353363","-23.0"
"1529863353363","-24.0"
"1529863353364","-25.0"
"1529863353367","-26.0"
"1529863353367","-27.0"
"1529863353368","-28.0"
"1529863353368","-29.0"
"1529863353389","-30.0"
"1529863353390","-31.0"
"1529863353390","-32.0"
"1529863353390","-33.0"
"1529863353390","-34.0"
"1529863353390","-35.0"
"1529863353391","-36.0"
"1529863353391","-37.0"
"1529863353391","-38.0"
"1529863353412","-39.0"
"1529863353412","-40.0"
"1529863353412","-41.0"
"1529863353412","-42.0"
"1529863353412","-43.0"
"1529863353412","-44.0"
"1529863353433","-45.0"
"1529863353433","-46.0"
"1529863353433","-47.0"
"1529863353454","-48.0"
"1529863353475","-47.0"
"1529863353475","-46.0"
"1529863353496","-45.0"
"1529863353496","-44.0"
"1529863353496","-43.0"
"1529863353517","-42.0"
"1529863353517","-41.0"
"1529863353517","-40.0"
"1529863353538","-39.0"
"1529863353538","-38.0"
"1529863353538","-37.0"
"1529863353559","-36.0"
"1529863353560","-35.0"
"1529863353560","-34.0"
"1529863353560","-33.0"
"1529863353560","-32.0"
"1529863353581","-31.0"
"1529863353581","-30.0"
"1529863353581","-29.0"
"1529863353581","-28.0"
"1529863353581","-27.0"
"1529863353614","-26.0"
"1529863353614","-25.0"
"1529863353635","-24.0"
"1529863353656","-23.0"
"1529863353657","-22.0"
"1529863353677","-21.0"
"1529863353677","-20.0"
"1529863353677","-19.0"
"1529863353698","-18.0"
"1529863353699","-17.0"
"1529863353699","-16.0"
"1529863353699","-15.0"
"1529863353699","-14.0"
"1529863353699","-13.0"
"1529863353700","-12.0"
"1529863353700","-11.0"
"1529863353700","-10.0"
"1529863353700","-9.0"
"1529863353721","-8.0"
"1529863353722","-7.0"
"1529863353722","-6.0"
"1529863353722","-5.0"
"1529863353722","-4.0"
"1529863353723","-3.0"
"1529863353723","-2.0"
"1529863353723","-1.0"
"1529863353723","0.0"
"1529863353744","1.0"
"1529863353744","2.0"
"1529863353744","3.0"
"1529863353744","4.0"
"1529863353744","5.0"
"1529863353744","6.0"
"1529863353744","7.0"
"1529863353767","8.0"
"1529863353767","9.0"
"1529863353767","10.0"
"1529863353767","11.0"
"1529863353767","12.0"
"1529863353787","13.0"
"1529863353788","14.0"
"1529863353788","15.0"
"1529863353788","16.0"
"1529863353808","17.0"
"1529863353831","16.0"
"1529863353831","15.0"
"1529863353832","14.0"
"1529863353832","13.0"
"1529863353853","12.0"
"1529863353897","11.0"
"1529863353918","10.0"
"1529863353918","9.0"
"1529863353918","8.0"
"1529863353939","7.0"
"1529863353939","6.0"
"1529863353939","5.0"
"1529863353939","4.0"
"1529863353940","3.0"
"1529863353982","2.0"
"1529863353982","3.0"
"1529863354003","4.0"
"1529863354003","5.0"
"1529863354024","6.0"
"1529863354086","5.0"
"1529863354087","4.0"
"1529863354129","3.0"
"1529863354129","4.0"
"1529863354150","5.0"
"1529863354150","6.0"
"1529863354172","7.0"
"1529863354172","8.0"
"1529863354193","9.0"
"1529863354193","10.0"
"1529863354194","11.0"
"1529863354215","10.0"
"1529863354237","9.0"
"1529863354237","8.0"
"1529863354258","7.0"
"1529863354258","6.0"
"1529863354290","5.0"
"1529863354311","4.0"
"1529863354332","5.0"
"1529863354332","6.0"
"1529863354377","5.0"
"1529863354398","4.0"
"1529863354419","3.0"
"1529863354419","2.0"
"1529863354440","1.0"
"1529863354440","0.0"
"1529863354440","-1.0"
"1529863354441","-2.0"
"1529863354441","-3.0"
"1529863354441","-4.0"
"1529863354443","-5.0"
"1529863354443","-6.0"
"1529863354443","-7.0"
"1529863354443","-8.0"
"1529863354443","-9.0"
"1529863354444","-10.0"
"1529863354485","-9.0"
"1529863354485","-8.0"
"1529863354506","-7.0"
"1529863354509","-6.0"
"1529863354509","-5.0"
"1529863354509","-4.0"
"1529863354509","-3.0"
"1529863354510","-2.0"
"1529863354536","-1.0"
"1529863354536","0.0"
"1529863354536","1.0"
"1529863354557","2.0"
"1529863354558","3.0"
"1529863354558","4.0"
"1529863354558","5.0"
"1529863354579","7.0"
"1529863354579","8.0"
"1529863354579","9.0"
"1529863354608","11.0"
"1529863354608","12.0"
"1529863354609","14.0"
"1529863354629","16.0"
"1529863354629","17.0"
"1529863354650","19.0"
"1529863354651","21.0"
"1529863354692","22.0"
"1529863354692","23.0"
"1529863354734","24.0"
"1529863354777","25.0"
"1529863354841","26.0"
"1529863354882","25.0"
"1529863354882","24.0"
"1529863354903","23.0"
"1529863354903","22.0"
"1529863354903","21.0"
"1529863354903","20.0"
"1529863354903","18.0"
"1529863354924","17.0"
"1529863354924","16.0"
"1529863354925","14.0"
"1529863354925","13.0"
"1529863354925","11.0"
"1529863354925","10.0"
"1529863354946","8.0"
"1529863354946","7.0"
"1529863354946","5.0"
"1529863354946","4.0"
"1529863354946","2.0"
"1529863354946","0.0"
"1529863354967","-2.0"
"1529863354967","-4.0"
"1529863354988","-6.0"
"1529863354988","-8.0"
"1529863354988","-11.0"
"1529863354988","-13.0"
"1529863354988","-16.0"
"1529863355009","-19.0"
"1529863355009","-22.0"
"1529863355009","-25.0"
"1529863355009","-28.0"
"1529863355009","-31.0"
"1529863355009","-33.0"
"1529863355009","-36.0"
"1529863355009","-39.0"
"1529863355009","-42.0"
"1529863355010","-45.0"
"1529863355010","-48.0"
"1529863355010","-51.0"
"1529863355010","-54.0"
"1529863355030","-57.0"
"1529863355031","-60.0"
"1529863355031","-63.0"
"1529863355052","-66.0"
"1529863355052","-69.0"
"1529863355052","-72.0"
"1529863355053","-76.0"
"1529863355053","-79.0"
"1529863355053","-82.0"
"1529863355053","-85.0"
"1529863355074","-88.0"
"1529863355075","-91.0"
"1529863355075","-93.0"
"1529863355075","-96.0"
"1529863355075","-99.0"
"1529863355075","-102.0"
"1529863355075","-106.0"
"1529863355076","-109.0"
"1529863355076","-112.0"
"1529863355098","-115.0"
"1529863355098","-119.0"
"1529863355099","-123.0"
"1529863355099","-127.0"
"1529863355099","-131.0"
"1529863355099","-136.0"
"1529863355120","-140.0"
"1529863355120","-145.0"
"1529863355120","-151.0"
"1529863355120","-156.0"
"1529863355120","-161.0"
"1529863355120","-167.0"
"1529863355141","-173.0"
"1529863355141","-178.0"
"1529863355141","-184.0"
"1529863355141","-189.0"
"1529863355141","-195.0"
"1529863355162","-200.0"
"1529863355162","-204.0"
"1529863355164","-209.0"
"1529863355185","-212.0"
"1529863355185","-216.0"
"1529863355186","-218.0"
"1529863355186","-220.0"
"1529863355186","-222.0"
"1529863355186","-223.0"
"1529863355186","-222.0"
"1529863355186","-221.0"
"1529863355186","-220.0"
"1529863355187","-218.0"
"1529863355187","-215.0"
"1529863355207","-212.0"
"1529863355207","-209.0"
"1529863355208","-205.0"
"1529863355208","-200.0"
"1529863355208","-195.0"
"1529863355228","-190.0"
"1529863355229","-185.0"
"1529863355229","-179.0"
"1529863355229","-173.0"
"1529863355229","-167.0"
"1529863355229","-161.0"
"1529863355229","-154.0"
"1529863355229","-148.0"
"1529863355250","-141.0"
"1529863355250","-134.0"
"1529863355250","-128.0"
"1529863355250","-121.0"
"1529863355250","-114.0"
"1529863355250","-107.0"
"1529863355251","-100.0"
"1529863355271","-93.0"
"1529863355271","-87.0"
"1529863355271","-80.0"
"1529863355271","-73.0"
"1529863355271","-67.0"
"1529863355272","-60.0"
"1529863355292","-53.0"
"1529863355292","-47.0"
"1529863355293","-41.0"
"1529863355293","-35.0"
"1529863355293","-28.0"
"1529863355314","-22.0"
"1529863355314","-17.0"
"1529863355314","-11.0"
"1529863355315","-5.0"
"1529863355315","0.0"
"1529863355315","4.0"
"1529863355315","10.0"
"1529863355336","15.0"
"1529863355336","20.0"
"1529863355337","24.0"
"1529863355337","29.0"
"1529863355337","34.0"
"1529863355337","38.0"
"1529863355357","42.0"
"1529863355358","46.0"
"1529863355358","48.0"
"1529863355379","49.0"
"1529863355406","50.0"
"1529863355427","51.0"
"1529863355427","52.0"
"1529863355448","53.0"
"1529863355470","54.0"
"1529863355491","55.0"
"1529863355532","56.0"
"1529863355574","55.0"
"1529863355574","52.0"
"1529863355574","50.0"
"1529863355574","48.0"
"1529863355575","45.0"
"1529863355575","43.0"
"1529863355575","40.0"
"1529863355575","38.0"
"1529863355575","36.0"
"1529863355575","33.0"
"1529863355575","31.0"
"1529863355596","29.0"
"1529863355596","26.0"
"1529863355596","24.0"
"1529863355596","22.0"
"1529863355596","20.0"
"1529863355596","18.0"
"1529863355596","16.0"
"1529863355617","14.0"
"1529863355617","12.0"
"1529863355617","10.0"
"1529863355618","9.0"
"1529863355620","7.0"
"1529863355642","6.0"
"1529863355642","4.0"
"1529863355642","3.0"
"1529863355642","1.0"
"1529863355663","0.0"
"1529863355663","-1.0"
"1529863355664","-2.0"
"1529863355684","-3.0"
"1529863355684","-4.0"
"1529863355685","-5.0"
"1529863355757","-6.0"
"1529863355778","-5.0"
"1529863355779","-4.0"
"1529863355779","-5.0"
"1529863355779","-6.0"
"1529863355779","-7.0"
"1529863355780","-8.0"
"1529863355800","-9.0"
"1529863355801","-10.0"
"1529863355801","-11.0"
"1529863355801","-12.0"
"1529863355821","-13.0"
"1529863355822","-14.0"
"1529863355822","-15.0"
"1529863355822","-16.0"
"1529863355822","-17.0"
"1529863355822","-18.0"
"1529863355822","-19.0"
"1529863355822","-20.0"
"1529863355843","-21.0"
"1529863355843","-22.0"
"1529863355843","-23.0"
"1529863355843","-24.0"
"1529863355843","-25.0"
"1529863355843","-26.0"
"1529863355843","-27.0"
"1529863355845","-28.0"
"1529863355845","-29.0"
"1529863355845","-30.0"
"1529863355845","-31.0"
"1529863355845","-32.0"
"1529863355845","-33.0"
"1529863355866","-34.0"
"1529863355866","-33.0"
"1529863355866","-32.0"
"1529863355866","-31.0"
"1529863355894","-29.0"
"1529863355894","-28.0"
"1529863355894","-27.0"
"1529863355894","-26.0"
"1529863355894","-25.0"
"1529863355894","-23.0"
"1529863355915","-22.0"
"1529863355915","-21.0"
"1529863355915","-20.0"
"1529863355915","-19.0"
"1529863355916","-18.0"
"1529863355936","-17.0"
"1529863355936","-16.0"
"1529863355957","-15.0"
"1529863355958","-14.0"
"1529863355979","-13.0"
"1529863355980","-12.0"
"1529863355980","-10.0"
"1529863355980","-9.0"
"1529863355984","-7.0"
"1529863355984","-5.0"
"1529863355984","-2.0"
"1529863355984","0.0"
"1529863355984","2.0"
"1529863356005","5.0"
"1529863356005","8.0"
"1529863356005","11.0"
"1529863356026","14.0"
"1529863356026","17.0"
"1529863356026","20.0"
"1529863356027","24.0"
"1529863356027","27.0"
"1529863356027","30.0"
"1529863356048","32.0"
"1529863356048","35.0"
"1529863356048","37.0"
"1529863356049","39.0"
"1529863356049","41.0"
"1529863356049","42.0"
"1529863356049","44.0"
"1529863356069","45.0"
"1529863356070","44.0"
"1529863356070","43.0"
"1529863356070","42.0"
"1529863356070","41.0"
"1529863356070","39.0"
"1529863356090","37.0"
"1529863356091","35.0"
"1529863356091","32.0"
"1529863356091","29.0"
"1529863356091","26.0"
"1529863356091","23.0"
"1529863356091","19.0"
"1529863356091","15.0"
"1529863356112","12.0"
"1529863356112","7.0"
"1529863356112","3.0"
"1529863356112","-1.0"
"1529863356133","-6.0"
"1529863356133","-12.0"
"1529863356133","-18.0"
"1529863356133","-24.0"
"1529863356133","-31.0"
"1529863356133","-37.0"
"1529863356154","-44.0"
"1529863356154","-51.0"
"1529863356154","-58.0"
"1529863356154","-64.0"
"1529863356154","-70.0"
"1529863356156","-77.0"
"1529863356156","-83.0"
"1529863356156","-88.0"
"1529863356176","-94.0"
"1529863356176","-99.0"
"1529863356177","-103.0"
"1529863356177","-108.0"
"1529863356177","-111.0"
"1529863356177","-114.0"
"1529863356198","-117.0"
"1529863356199","-119.0"
"1529863356199","-120.0"
"1529863356200","-119.0"
"1529863356200","-118.0"
"1529863356221","-115.0"
"1529863356221","-112.0"
"1529863356221","-109.0"
"1529863356222","-105.0"
"1529863356222","-101.0"
"1529863356243","-96.0"
"1529863356243","-91.0"
"1529863356243","-86.0"
"1529863356243","-80.0"
"1529863356243","-75.0"
"1529863356243","-70.0"
"1529863356244","-64.0"
"1529863356265","-59.0"
"1529863356265","-54.0"
"1529863356265","-49.0"
"1529863356265","-45.0"
"1529863356266","-41.0"
"1529863356266","-37.0"
"1529863356266","-34.0"
"1529863356266","-31.0"
"1529863356266","-28.0"
"1529863356286","-26.0"
"1529863356287","-24.0"
"1529863356287","-22.0"
"1529863356287","-21.0"
"1529863356308","-23.0"
"1529863356308","-24.0"
"1529863356308","-26.0"
"1529863356309","-29.0"
"1529863356309","-31.0"
"1529863356329","-34.0"
"1529863356329","-37.0"
"1529863356330","-41.0"
"1529863356330","-44.0"
"1529863356330","-47.0"
"1529863356330","-50.0"
"1529863356351","-53.0"
"1529863356351","-56.0"
"1529863356351","-59.0"
"1529863356351","-62.0"
"1529863356351","-65.0"
"1529863356353","-67.0"
"1529863356374","-69.0"
"1529863356374","-70.0"
"1529863356374","-72.0"
"1529863356374","-73.0"
"1529863356374","-75.0"
"1529863356374","-76.0"
"1529863356374","-77.0"
"1529863356374","-78.0"
"1529863356395","-79.0"
"1529863356395","-78.0"
"1529863356415","-77.0"
"1529863356416","-76.0"
"1529863356416","-75.0"
"1529863356416","-74.0"
"1529863356416","-73.0"
"1529863356417","-71.0"
"1529863356437","-69.0"
"1529863356437","-67.0"
"1529863356437","-65.0"
"1529863356438","-63.0"
"1529863356438","-61.0"
"1529863356438","-59.0"
"1529863356438","-57.0"
"1529863356459","-54.0"
"1529863356459","-52.0"
"1529863356459","-50.0"
"1529863356459","-47.0"
"1529863356459","-45.0"
"1529863356460","-43.0"
"1529863356480","-41.0"
"1529863356480","-39.0"
"1529863356480","-38.0"
"1529863356481","-36.0"
"1529863356481","-35.0"
"1529863356501","-34.0"
"1529863356523","-35.0"
"1529863356523","-36.0"
"1529863356523","-37.0"
"1529863356523","-38.0"
"1529863356523","-39.0"
"1529863356523","-40.0"
"1529863356524","-41.0"
"1529863356552","-42.0"
"1529863356553","-43.0"
"1529863356553","-44.0"
"1529863356573","-45.0"
"1529863356576","-44.0"
"1529863356596","-43.0"
"1529863356597","-42.0"
"1529863356597","-41.0"
"1529863356617","-39.0"
"1529863356617","-38.0"
"1529863356617","-36.0"
"1529863356618","-34.0"
"1529863356655","-32.0"
"1529863356655","-29.0"
"1529863356655","-26.0"
"1529863356676","-24.0"
"1529863356676","-21.0"
"1529863356676","-18.0"
"1529863356676","-15.0"
"1529863356676","-13.0"
"1529863356678","-10.0"
"1529863356678","-8.0"
"1529863356679","-6.0"
"1529863356679","-4.0"
"1529863356679","-3.0"
"1529863356679","-2.0"
"1529863356699","-3.0"
"1529863356700","-4.0"
"1529863356700","-5.0"
"1529863356700","-7.0"
"1529863356700","-9.0"
"1529863356700","-12.0"
"1529863356700","-15.0"
"1529863356700","-19.0"
"1529863356700","-23.0"
"1529863356701","-27.0"
"1529863356701","-32.0"
"1529863356701","-37.0"
"1529863356701","-43.0"
"1529863356701","-48.0"
"1529863356722","-54.0"
"1529863356722","-60.0"
"1529863356722","-65.0"
"1529863356722","-71.0"
"1529863356722","-77.0"
"1529863356723","-83.0"
"1529863356723","-89.0"
"1529863356723","-95.0"
"1529863356723","-100.0"
"1529863356723","-106.0"
"1529863356723","-112.0"
"1529863356744","-117.0"
"1529863356744","-123.0"
"1529863356744","-128.0"
"1529863356744","-133.0"
"1529863356744","-138.0"
"1529863356744","-144.0"
"1529863356744","-149.0"
"1529863356744","-154.0"
"1529863356746","-159.0"
"1529863356766","-164.0"
"1529863356766","-170.0"
"1529863356767","-175.0"
"1529863356767","-181.0"
"1529863356767","-186.0"
"1529863356787","-192.0"
"1529863356788","-197.0"
"1529863356788","-203.0"
"1529863356788","-208.0"
"1529863356788","-214.0"
"1529863356788","-219.0"
"1529863356788","-224.0"
"1529863356809","-229.0"
"1529863356809","-234.0"
"1529863356809","-238.0"
"1529863356810","-243.0"
"1529863356810","-247.0"
"1529863356810","-251.0"
"1529863356831","-255.0"
"1529863356834","-259.0"
"1529863356834","-262.0"
"1529863356834","-264.0"
"1529863356835","-267.0"
"1529863356835","-268.0"
"1529863356855","-269.0"
"1529863356856","-268.0"
"1529863356856","-267.0"
"1529863356856","-266.0"
"1529863356856","-265.0"
"1529863356856","-263.0"
"1529863356877","-261.0"
"1529863356877","-259.0"
"1529863356877","-257.0"
"1529863356877","-254.0"
"1529863356878","-250.0"
"1529863356878","-247.0"
"1529863356878","-243.0"
"1529863356898","-238.0"
"1529863356899","-234.0"
"1529863356899","-229.0"
"1529863356920","-224.0"
"1529863356920","-218.0"
"1529863356941","-212.0"
"1529863356941","-206.0"
"1529863356941","-200.0"
"1529863356941","-193.0"
"1529863356941","-186.0"
"1529863356941","-179.0"
"1529863356941","-172.0"
"1529863356941","-165.0"
"1529863356962","-158.0"
"1529863356962","-152.0"
"1529863356962","-145.0"
"1529863356963","-138.0"
"1529863356963","-131.0"
"1529863356963","-124.0"
"1529863356963","-117.0"
"1529863356965","-110.0"
"1529863356965","-103.0"
"1529863356965","-96.0"
"1529863356965","-89.0"
"1529863356965","-83.0"
"1529863356965","-76.0"
"1529863356966","-70.0"
"1529863356986","-63.0"
"1529863356986","-57.0"
"1529863356986","-51.0"
"1529863356987","-44.0"
"1529863356987","-38.0"
"1529863356987","-31.0"
"1529863357008","-25.0"
"1529863357008","-18.0"
"1529863357009","-12.0"
"1529863357009","-6.0"
"1529863357009","0.0"
"1529863357009","5.0"
"1529863357039","11.0"
"1529863357040","17.0"
"1529863357040","23.0"
"1529863357062","30.0"
"1529863357062","36.0"
"1529863357063","42.0"
"1529863357063","48.0"
"1529863357063","54.0"
"1529863357063","60.0"
"1529863357063","66.0"
"1529863357063","71.0"
"1529863357063","77.0"
"1529863357063","83.0"
"1529863357063","89.0"
"1529863357063","92.0"
"1529863357084","93.0"
"1529863357107","94.0"
"1529863357107","95.0"
"1529863357107","96.0"
"1529863357128","97.0"
"1529863357149","98.0"
"1529863357149","99.0"
"1529863357150","100.0"
"1529863357170","101.0"
"1529863357212","102.0"
"1529863357212","103.0"
"1529863357212","104.0"
"1529863357213","105.0"
"1529863357213","106.0"
"1529863357234","107.0"
"1529863357235","108.0"
"1529863357256","109.0"
"1529863357256","110.0"
"1529863357277","111.0"
"1529863357277","112.0"
"1529863357298","113.0"
"1529863357319","108.0"
"1529863357319","100.0"
"1529863357319","92.0"
"1529863357319","84.0"
"1529863357319","74.0"
"1529863357340","65.0"
"1529863357341","55.0"
"1529863357341","45.0"
"1529863357341","34.0"
"1529863357362","24.0"
"1529863357362","14.0"
"1529863357362","4.0"
"1529863357363","-5.0"
"1529863357363","-14.0"
"1529863357364","-23.0"
"1529863357364","-32.0"
"1529863357384","-40.0"
"1529863357384","-48.0"
"1529863357384","-55.0"
"1529863357384","-62.0"
"1529863357385","-68.0"
"1529863357385","-73.0"
"1529863357385","-78.0"
"1529863357385","-83.0"
"1529863357385","-86.0"
"1529863357406","-90.0"
"1529863357406","-92.0"
"1529863357406","-94.0"
"1529863357406","-96.0"
"1529863357406","-97.0"
"1529863357427","-96.0"
"1529863357427","-95.0"
"1529863357427","-94.0"
"1529863357448","-92.0"
"1529863357448","-91.0"
"1529863357448","-89.0"
"1529863357448","-87.0"
"1529863357449","-84.0"
"1529863357449","-82.0"
"1529863357449","-79.0"
"1529863357449","-77.0"
"1529863357449","-74.0"
"1529863357449","-72.0"
"1529863357469","-69.0"
"1529863357470","-67.0"
"1529863357470","-65.0"
"1529863357491","-63.0"
"1529863357491","-61.0"
"1529863357491","-59.0"
"1529863357492","-58.0"
"1529863357492","-56.0"
"1529863357513","-55.0"
"1529863357513","-53.0"
"1529863357513","-52.0"
"1529863357513","-51.0"
"1529863357513","-50.0"
"1529863357513","-49.0"
"1529863357534","-48.0"
"1529863357534","-47.0"
"1529863357555","-46.0"
"1529863357576","-45.0"
"1529863357578","-44.0"
"1529863357578","-43.0"
"1529863357600","-42.0"
"1529863357600","-41.0"
"1529863357600","-40.0"
"1529863357600","-39.0"
"1529863357600","-38.0"
"1529863357600","-37.0"
"1529863357600","-36.0"
"1529863357652","-34.0"
"1529863357652","-33.0"
"1529863357652","-32.0"
"1529863357673","-30.0"
"1529863357673","-29.0"
"1529863357673","-28.0"
"1529863357673","-26.0"
"1529863357674","-25.0"
"1529863357675","-23.0"
"1529863357675","-22.0"
"1529863357675","-21.0"
"1529863357675","-19.0"
"1529863357696","-18.0"
"1529863357696","-16.0"
"1529863357696","-15.0"
"1529863357696","-14.0"
"1529863357697","-12.0"
"1529863357697","-11.0"
"1529863357697","-9.0"
"1529863357697","-8.0"
"1529863357698","-6.0"
"1529863357698","-5.0"
"1529863357698","-3.0"
"1529863357698","-1.0"
"1529863357719","0.0"
"1529863357719","2.0"
"1529863357719","4.0"
"1529863357719","7.0"
"1529863357720","9.0"
"1529863357720","12.0"
"1529863357721","14.0"
"1529863357721","16.0"
"1529863357721","19.0"
"1529863357721","21.0"
"1529863357721","23.0"
"1529863357721","26.0"
"1529863357743","28.0"
"1529863357743","30.0"
"1529863357743","32.0"
"1529863357743","34.0"
"1529863357744","36.0"
"1529863357744","37.0"
"1529863357744","39.0"
"1529863357764","40.0"
"1529863357765","41.0"
"1529863357765","42.0"
"1529863357765","43.0"
"1529863357766","44.0"
"1529863357787","43.0"
"1529863357787","42.0"
"1529863357787","41.0"
"1529863357788","40.0"
"1529863357788","38.0"
"1529863357808","37.0"
"1529863357809","35.0"
"1529863357809","33.0"
"1529863357809","31.0"
"1529863357809","29.0"
"1529863357830","26.0"
"1529863357830","24.0"
"1529863357830","22.0"
"1529863357830","19.0"
"1529863357830","17.0"
"1529863357830","15.0"
"1529863357830","13.0"
"1529863357830","10.0"
"1529863357831","8.0"
"1529863357851","6.0"
"1529863357851","4.0"
"1529863357851","2.0"
"1529863357851","0.0"
"1529863357851","-2.0"
"1529863357872","-3.0"
"1529863357872","-4.0"
"1529863357872","-5.0"
"1529863357872","-6.0"
"1529863357872","-7.0"
"1529863357872","-8.0"
"1529863357894","-9.0"
"1529863357936","-10.0"
"1529863357936","-11.0"
"1529863357936","-12.0"
"1529863357936","-13.0"
"1529863357937","-14.0"
"1529863357957","-15.0"
"1529863357957","-16.0"
"1529863357957","-18.0"
"1529863357979","-19.0"
"1529863357979","-21.0"
"1529863357979","-22.0"
"1529863357979","-24.0"
"1529863357979","-25.0"
"1529863357979","-26.0"
"1529863358000","-28.0"
"1529863358000","-29.0"
"1529863358000","-30.0"
"1529863358000","-31.0"
"1529863358000","-32.0"
"1529863358021","-31.0"
"1529863358021","-30.0"
"1529863358043","-29.0"
"1529863358043","-27.0"
"1529863358043","-26.0"
"1529863358043","-24.0"
"1529863358044","-22.0"
"1529863358044","-19.0"
"1529863358064","-16.0"
"1529863358065","-14.0"
"1529863358065","-11.0"
"1529863358065","-8.0"
"1529863358065","-6.0"
"1529863358065","-3.0"
"1529863358065","-1.0"
"1529863358065","0.0"
"1529863358065","3.0"
"1529863358065","5.0"
"1529863358086","7.0"
"1529863358086","8.0"
"1529863358086","10.0"
"1529863358086","11.0"
"1529863358107","10.0"
"1529863358107","8.0"
"1529863358107","7.0"
"1529863358107","5.0"
"1529863358128","3.0"
"1529863358128","1.0"
"1529863358128","-1.0"
"1529863358128","-4.0"
"1529863358128","-7.0"
"1529863358149","-10.0"
"1529863358149","-13.0"
"1529863358149","-16.0"
"1529863358149","-19.0"
"1529863358150","-22.0"
"1529863358150","-25.0"
"1529863358151","-28.0"
"1529863358151","-30.0"
"1529863358151","-33.0"
"1529863358151","-35.0"
"1529863358172","-37.0"
"1529863358172","-39.0"
"1529863358172","-40.0"
"1529863358193","-41.0"
"1529863358193","-42.0"
"1529863358194","-41.0"
"1529863358215","-40.0"
"1529863358215","-39.0"
"1529863358215","-38.0"
"1529863358215","-37.0"
"1529863358215","-36.0"
"1529863358239","-35.0"
"1529863358240","-34.0"
"1529863358240","-35.0"
"1529863358240","-36.0"
"1529863358240","-37.0"
"1529863358261","-39.0"
"1529863358261","-40.0"
"1529863358261","-42.0"
"1529863358261","-44.0"
"1529863358261","-47.0"
"1529863358261","-49.0"
"1529863358282","-51.0"
"1529863358282","-53.0"
"1529863358282","-56.0"
"1529863358282","-58.0"
"1529863358282","-60.0"
"1529863358305","-61.0"
"1529863358305","-63.0"
"1529863358305","-64.0"
"1529863358305","-66.0"
"1529863358305","-67.0"
"1529863358305","-68.0"
"1529863358326","-69.0"
"1529863358347","-68.0"
"1529863358347","-67.0"
"1529863358347","-66.0"
"1529863358347","-65.0"
"1529863358348","-64.0"
"1529863358349","-63.0"
"1529863358370","-61.0"
"1529863358370","-60.0"
"1529863358370","-59.0"
"1529863358370","-58.0"
"1529863358370","-57.0"
"1529863358370","-55.0"
"1529863358370","-54.0"
"1529863358391","-53.0"
"1529863358391","-51.0"
"1529863358391","-50.0"
"1529863358391","-49.0"
"1529863358391","-48.0"
"1529863358391","-47.0"
"1529863358415","-46.0"
"1529863358415","-45.0"
"1529863358415","-44.0"
"1529863358441","-43.0"
"1529863358462","-42.0"
"1529863358462","-43.0"
"1529863358463","-44.0"
"1529863358463","-45.0"
"1529863358463","-46.0"
"1529863358463","-47.0"
"1529863358463","-48.0"
"1529863358484","-49.0"
"1529863358484","-50.0"
"1529863358506","-49.0"
"1529863358506","-48.0"
"1529863358506","-47.0"
"1529863358506","-46.0"
"1529863358506","-45.0"
"1529863358506","-44.0"
"1529863358527","-42.0"
"1529863358527","-40.0"
"1529863358527","-38.0"
"1529863358548","-35.0"
"1529863358548","-33.0"
"1529863358548","-30.0"
"1529863358569","-27.0"
"1529863358569","-24.0"
"1529863358569","-21.0"
"1529863358569","-18.0"
"1529863358569","-14.0"
"1529863358570","-11.0"
"1529863358597","-7.0"
"1529863358597","-2.0"
"1529863358597","1.0"
"1529863358618","6.0"
"1529863358618","11.0"
"1529863358619","17.0"
"1529863358619","22.0"
"1529863358619","27.0"
"1529863358619","33.0"
"1529863358619","38.0"
"1529863358620","44.0"
"1529863358620","50.0"
"1529863358640","55.0"
"1529863358640","61.0"
"1529863358641","67.0"
"1529863358641","73.0"
"1529863358641","78.0"
"1529863358641","84.0"
"1529863358641","89.0"
"1529863358641","95.0"
"1529863358642","100.0"
"1529863358663","105.0"
"1529863358663","108.0"
"1529863358663","109.0"
"1529863358705","110.0"
"1529863358705","111.0"
"1529863358705","112.0"
"1529863358707","113.0"
"1529863358728","114.0"
"1529863358729","115.0"
"1529863358729","116.0"
"1529863358729","117.0"
"1529863358750","118.0"
"1529863358750","119.0"
"1529863358772","120.0"
"1529863358793","121.0"
"1529863358793","122.0"
"1529863358793","123.0"
"1529863358814","124.0"
"1529863358814","125.0"
"1529863358836","126.0"
"1529863358836","127.0"
"1529863358857","128.0"
"1529863358858","129.0"
"1529863358879","130.0"
"1529863358902","131.0"
"1529863358902","132.0"
"1529863358923","133.0"
"1529863358944","134.0"
"1529863358965","132.0"
"1529863358965","130.0"
"1529863358965","129.0"
"1529863358965","127.0"
"1529863358986","125.0"
"1529863358986","123.0"
"1529863358986","121.0"
"1529863358986","119.0"
"1529863358986","117.0"
"1529863358986","115.0"
"1529863358986","113.0"
"1529863358986","111.0"
"1529863358986","109.0"
"1529863359007","107.0"
"1529863359007","105.0"
"1529863359007","103.0"
"1529863359007","102.0"
"1529863359007","100.0"
"1529863359007","98.0"
"1529863359028","96.0"
"1529863359029","95.0"
"1529863359029","93.0"
"1529863359029","92.0"
"1529863359029","91.0"
"1529863359049","89.0"
"1529863359050","88.0"
"1529863359050","87.0"
"1529863359050","86.0"
"1529863359050","85.0"
"1529863359050","84.0"
"1529863359050","83.0"
"1529863359071","82.0"
"1529863359071","81.0"
"1529863359071","80.0"
"1529863359114","81.0"
"1529863359135","82.0"
"1529863359135","83.0"
"1529863359135","84.0"
"1529863359156","85.0"
"1529863359156","86.0"
"1529863359158","87.0"
"1529863359158","88.0"
"1529863359179","89.0"
"1529863359179","90.0"
"1529863359180","91.0"
"1529863359180","92.0"
"1529863359180","93.0"
"1529863359180","94.0"
"1529863359201","95.0"
"1529863359201","96.0"
"1529863359201","97.0"
"1529863359201","98.0"
"1529863359201","99.0"
"1529863359202","100.0"
"1529863359222","101.0"
"1529863359222","102.0"
"1529863359222","103.0"
"1529863359224","104.0"
"1529863359224","105.0"
"1529863359224","106.0"
"1529863359224","107.0"
"1529863359245","108.0"
"1529863359245","109.0"
"1529863359265","110.0"
"1529863359266","111.0"
"1529863359266","112.0"
"1529863359266","113.0"
"1529863359266","114.0"
"1529863359266","115.0"
"1529863359266","116.0"
"1529863359287","117.0"
"1529863359288","118.0"
"1529863359308","119.0"
"1529863359308","120.0"
"1529863359329","121.0"
"1529863359329","122.0"
"1529863359329","123.0"
"1529863359350","124.0"
"1529863359351","125.0"
"1529863359351","126.0"
"1529863359372","127.0"
"1529863359373","126.0"
"1529863359373","125.0"
"1529863359393","124.0"
"1529863359393","123.0"
"1529863359394","122.0"
"1529863359394","120.0"
"1529863359394","119.0"
"1529863359394","118.0"
"1529863359415","116.0"
"1529863359415","114.0"
"1529863359415","112.0"
"1529863359415","110.0"
"1529863359415","107.0"
"1529863359415","105.0"
"1529863359415","102.0"
"1529863359417","100.0"
"1529863359438","97.0"
"1529863359438","94.0"
"1529863359438","92.0"
"1529863359439","89.0"
"1529863359439","86.0"
"1529863359439","83.0"
"1529863359439","80.0"
"1529863359460","77.0"
"1529863359460","74.0"
"1529863359460","71.0"
"1529863359481","68.0"
"1529863359481","65.0"
"1529863359481","62.0"
"1529863359481","59.0"
"1529863359481","56.0"
"1529863359481","54.0"
"1529863359502","51.0"
"1529863359503","48.0"
"1529863359503","45.0"
"1529863359504","42.0"
"1529863359504","40.0"
"1529863359504","37.0"
"1529863359504","34.0"
"1529863359505","32.0"
"1529863359505","30.0"
"1529863359525","27.0"
"1529863359526","25.0"
"1529863359526","23.0"
"1529863359546","21.0"
"1529863359546","18.0"
"1529863359547","16.0"
"1529863359567","14.0"
"1529863359567","12.0"
"1529863359567","11.0"
"1529863359567","9.0"
"1529863359567","8.0"
"1529863359568","7.0"
"1529863359568","5.0"
"1529863359568","4.0"
"1529863359569","3.0"
"1529863359602","2.0"
"1529863359603","0.0"
"1529863359636","-1.0"
"1529863359636","-2.0"
"1529863359636","-3.0"
"1529863359657","-4.0"
"1529863359657","-5.0"
"1529863359657","-6.0"
"1529863359678","-7.0"
"1529863359678","-8.0"
"1529863359678","-9.0"
"1529863359679","-10.0"
"1529863359680","-11.0"
"1529863359680","-12.0"
"1529863359680","-13.0"
"1529863359680","-14.0"
"1529863359681","-15.0"
"1529863359681","-16.0"
"1529863359681","-17.0"
"1529863359681","-18.0"
"1529863359681","-19.0"
"1529863359681","-20.0"
"1529863359681","-21.0"
"1529863359681","-22.0"
"1529863359681","-23.0"
"1529863359681","-25.0"
"1529863359681","-26.0"
"1529863359702","-28.0"
"1529863359702","-29.0"
"1529863359702","-30.0"
"1529863359704","-32.0"
"1529863359704","-33.0"
"1529863359704","-34.0"
"1529863359705","-36.0"
"1529863359705","-38.0"
"1529863359705","-39.0"
"1529863359705","-41.0"
"1529863359705","-43.0"
"1529863359726","-45.0"
"1529863359726","-46.0"
"1529863359747","-48.0"
"1529863359747","-50.0"
"1529863359747","-51.0"
"1529863359747","-53.0"
"1529863359747","-55.0"
"1529863359747","-57.0"
"1529863359747","-59.0"
"1529863359747","-61.0"
"1529863359747","-63.0"
"1529863359768","-65.0"
"1529863359769","-66.0"
"1529863359769","-68.0"
"1529863359769","-70.0"
"1529863359770","-71.0"
"1529863359770","-73.0"
"1529863359790","-75.0"
"1529863359790","-76.0"
"1529863359790","-78.0"
"1529863359790","-80.0"
"1529863359791","-82.0"
"1529863359791","-83.0"
"1529863359811","-85.0"
"1529863359812","-86.0"
"1529863359812","-88.0"
"1529863359812","-89.0"
"1529863359812","-91.0"
"1529863359812","-92.0"
"1529863359833","-94.0"
"1529863359833","-95.0"
"1529863359833","-97.0"
"1529863359835","-98.0"
"1529863359835","-100.0"
"1529863359836","-101.0"
"1529863359836","-102.0"
"1529863359856","-103.0"
"1529863359857","-104.0"
"1529863359857","-106.0"
"1529863359857","-107.0"
"1529863359857","-108.0"
"1529863359857","-109.0"
"1529863359857","-111.0"
"1529863359857","-112.0"
"1529863359857","-113.0"
"1529863359857","-114.0"
"1529863359857","-115.0"
"1529863359857","-116.0"
"1529863359878","-117.0"
"1529863359878","-118.0"
"1529863359878","-119.0"
"1529863359880","-120.0"
"1529863359901","-121.0"
"1529863359902","-122.0"
"1529863359902","-123.0"
"1529863359922","-124.0"
"1529863359923","-125.0"
"1529863359923","-126.0"
"1529863359923","-127.0"
"1529863359923","-128.0"
"1529863359923","-129.0"
"1529863359944","-130.0"
"1529863359944","-131.0"
"1529863359945","-132.0"
"1529863359966","-133.0"
"1529863359966","-134.0"
"1529863359966","-135.0"
"1529863359967","-136.0"
"1529863359988","-137.0"
"1529863359988","-138.0"
"1529863360009","-139.0"
"1529863360009","-140.0"
"1529863360009","-141.0"
"1529863360009","-142.0"
"1529863360009","-143.0"
"1529863360031","-142.0"
"1529863360052","-141.0"
"1529863360052","-140.0"
"1529863360052","-139.0"
"1529863360052","-137.0"
"1529863360052","-136.0"
"1529863360072","-134.0"
"1529863360073","-132.0"
"1529863360073","-130.0"
"1529863360073","-128.0"
"1529863360073","-125.0"
"1529863360073","-123.0"
"1529863360073","-120.0"
"1529863360073","-117.0"
"1529863360073","-115.0"
"1529863360073","-112.0"
"1529863360095","-109.0"
"1529863360095","-105.0"
"1529863360095","-102.0"
"1529863360095","-99.0"
"1529863360095","-95.0"
"1529863360116","-92.0"
"1529863360116","-88.0"
"1529863360116","-85.0"
"1529863360117","-81.0"
"1529863360138","-77.0"
"1529863360138","-73.0"
"1529863360138","-70.0"
"1529863360138","-66.0"
"1529863360138","-62.0"
"1529863360139","-58.0"
"1529863360139","-54.0"
"1529863360160","-51.0"
"1529863360160","-47.0"
"1529863360160","-44.0"
"1529863360161","-40.0"
"1529863360162","-37.0"
"1529863360162","-33.0"
"1529863360162","-30.0"
"1529863360162","-27.0"
"1529863360162","-24.0"
"1529863360183","-21.0"
"1529863360183","-18.0"
"1529863360183","-15.0"
"1529863360184","-12.0"
"1529863360184","-10.0"
"1529863360184","-7.0"
"1529863360204","-4.0"
"1529863360205","-2.0"
"1529863360205","0.0"
"1529863360205","2.0"
"1529863360205","4.0"
"1529863360205","6.0"
"1529863360226","8.0"
"1529863360226","11.0"
"1529863360229","13.0"
"1529863360231","15.0"
"1529863360231","17.0"
"1529863360231","19.0"
"1529863360252","21.0"
"1529863360252","22.0"
"1529863360252","24.0"
"1529863360252","26.0"
"1529863360252","27.0"
"1529863360252","29.0"
"1529863360252","31.0"
"1529863360252","32.0"
"1529863360252","34.0"
"1529863360273","35.0"
"1529863360274","36.0"
"1529863360274","38.0"
"1529863360275","39.0"
"1529863360275","40.0"
"1529863360296","42.0"
"1529863360296","43.0"
"1529863360296","44.0"
"1529863360299","45.0"
"1529863360299","46.0"
"1529863360299","47.0"
"1529863360299","48.0"
"1529863360320","49.0"
"1529863360320","50.0"
"1529863360320","51.0"
"1529863360320","52.0"
"1529863360320","53.0"
"1529863360321","54.0"
"1529863360341","55.0"
"1529863360341","56.0"
"1529863360364","57.0"
"1529863360364","58.0"
"1529863360406","59.0"
"1529863360407","58.0"
"1529863360407","57.0"
"1529863360429","56.0"
"1529863360450","55.0"
"1529863360450","54.0"
"1529863360451","53.0"
"1529863360472","52.0"
"1529863360472","51.0"
"1529863360473","50.0"
"1529863360473","49.0"
"1529863360473","48.0"
"1529863360473","47.0"
"1529863360473","46.0"
"1529863360494","45.0"
"1529863360495","44.0"
"1529863360495","43.0"
"1529863360495","42.0"
"1529863360495","41.0"
"1529863360495","39.0"
"1529863360516","38.0"
"1529863360517","37.0"
"1529863360517","36.0"
"1529863360517","35.0"
"1529863360517","34.0"
"1529863360517","33.0"
"1529863360538","32.0"
"1529863360538","31.0"
"1529863360539","30.0"
"1529863360539","29.0"
"1529863360539","28.0"
"1529863360539","27.0"
"1529863360591","26.0"
"1529863360591","25.0"
"1529863360592","24.0"
"1529863360613","23.0"
"1529863360614","22.0"
"1529863360614","21.0"
"1529863360614","20.0"
"1529863360648","19.0"
"1529863360648","18.0"
"1529863360648","17.0"
"1529863360649","16.0"
"1529863360669","15.0"
"1529863360692","14.0"
"1529863360712","13.0"
"1529863360733","12.0"
"1529863360734","11.0"
"1529863360754","10.0"
"1529863360776","9.0"
"1529863360776","8.0"
"1529863360797","7.0"
"1529863360797","6.0"
"1529863360819","5.0"
"1529863360820","6.0"
"1529863360820","7.0"
"1529863360841","8.0"
"1529863360842","9.0"
"1529863360842","10.0"
"1529863360842","11.0"
"1529863360844","12.0"
"1529863360844","13.0"
"1529863360844","14.0"
"1529863360865","15.0"
"1529863360866","16.0"
"1529863360866","17.0"
"1529863360866","18.0"
"1529863360866","19.0"
"1529863360866","20.0"
"1529863360866","21.0"
"1529863360867","22.0"
"1529863360887","23.0"
"1529863360887","24.0"
"1529863360887","25.0"
"1529863360888","26.0"
"1529863360888","27.0"
"1529863360888","28.0"
"1529863360888","29.0"
"1529863360909","30.0"
"1529863360909","31.0"
"1529863360909","32.0"
"1529863360910","33.0"
"1529863360930","34.0"
"1529863360930","35.0"
"1529863360930","36.0"
"1529863360931","37.0"
"1529863360931","38.0"
"1529863360931","39.0"
"1529863360952","40.0"
"1529863360952","41.0"
"1529863360952","42.0"
"1529863360972","43.0"
"1529863360973","44.0"
"1529863360973","45.0"
"1529863360973","46.0"
"1529863361036","45.0"
"1529863361058","44.0"
"1529863361058","43.0"
"1529863361058","42.0"
"1529863361079","41.0"
"1529863361079","40.0"
"1529863361100","39.0"
"1529863361100","38.0"
"1529863361100","37.0"
"1529863361100","36.0"
"1529863361121","35.0"
"1529863361142","34.0"
"1529863361142","33.0"
"1529863361143","32.0"
"1529863361143","31.0"
"1529863361143","30.0"
"1529863361143","29.0"
"1529863361143","28.0"
"1529863361166","27.0"
"1529863361167","26.0"
"1529863361167","25.0"
"1529863361187","24.0"
"1529863361188","23.0"
"1529863361188","22.0"
"1529863361188","21.0"
"1529863361209","20.0"
"1529863361209","19.0"
"1529863361230","18.0"
"1529863361230","17.0"
"1529863361230","16.0"
"1529863361230","15.0"
"1529863361231","14.0"
"1529863361251","13.0"
"1529863361251","12.0"
"1529863361272","11.0"
"1529863361272","10.0"
"1529863361272","9.0"
"1529863361272","8.0"
"1529863361273","7.0"
"1529863361293","6.0"
"1529863361293","5.0"
"1529863361295","4.0"
"1529863361295","3.0"
"1529863361295","2.0"
"1529863361316","1.0"
"1529863361336","0.0"
"1529863361399","1.0"
"1529863361399","2.0"
"1529863361441","3.0"
"1529863361505","4.0"
"1529863361506","5.0"
"1529863361559","6.0"
"1529863361580","7.0"
"1529863361580","8.0"
"1529863361580","9.0"
"1529863361601","10.0"
"1529863361647","11.0"
"1529863361668","12.0"
"1529863361668","13.0"
"1529863361689","12.0"
"1529863361689","11.0"
"1529863361689","10.0"
"1529863361690","9.0"
"1529863361690","8.0"
"1529863361690","7.0"
"1529863361690","6.0"
"1529863361690","4.0"
"1529863361690","3.0"
"1529863361690","2.0"
"1529863361690","1.0"
"1529863361690","0.0"
"1529863361711","-1.0"
"1529863361711","-2.0"
"1529863361711","-3.0"
"1529863361711","-4.0"
"1529863361712","-6.0"
"1529863361712","-7.0"
"1529863361712","-8.0"
"1529863361712","-9.0"
"1529863361712","-11.0"
"1529863361712","-12.0"
"1529863361712","-13.0"
"1529863361712","-14.0"
"1529863361712","-15.0"
"1529863361713","-16.0"
"1529863361713","-17.0"
"1529863361713","-18.0"
"1529863361713","-19.0"
"1529863361713","-20.0"
"1529863361713","-21.0"
"1529863361734","-22.0"
"1529863361734","-23.0"
"1529863361734","-24.0"
"1529863361734","-25.0"
"1529863361734","-26.0"
"1529863361734","-27.0"
"1529863361755","-28.0"
"1529863361755","-29.0"
"1529863361756","-30.0"
"1529863361776","-31.0"
"1529863361776","-32.0"
"1529863361797","-33.0"
"1529863361798","-34.0"
"1529863361798","-35.0"
"1529863361843","-34.0"
"1529863361843","-33.0"
"1529863361843","-32.0"
"1529863361873","-31.0"
"1529863361873","-30.0"
"1529863361895","-29.0"
"1529863361895","-28.0"
"1529863361895","-27.0"
"1529863361895","-26.0"
"1529863361895","-25.0"
"1529863361895","-24.0"
"1529863361896","-23.0"
"1529863361896","-22.0"
"1529863361896","-21.0"
"1529863361917","-20.0"
"1529863361917","-19.0"
"1529863361917","-18.0"
"1529863361938","-17.0"
"1529863361938","-16.0"
"1529863361938","-15.0"
"1529863361938","-14.0"
"1529863361938","-13.0"
"1529863361938","-12.0"
"1529863361939","-11.0"
"1529863361959","-10.0"
"1529863361959","-9.0"
"1529863361960","-8.0"
"1529863361960","-7.0"
"1529863361981","-6.0"
"1529863361981","-5.0"
"1529863362002","-4.0"
"1529863362002","-3.0"
"1529863362023","-2.0"
"1529863362044","-1.0"
"1529863362044","0.0"
"1529863362065","1.0"
"1529863362065","2.0"
"1529863362065","3.0"
"1529863362065","4.0"
"1529863362066","5.0"
"1529863362066","6.0"
"1529863362066","7.0"
"1529863362086","8.0"
"1529863362087","10.0"
"1529863362087","11.0"
"1529863362087","12.0"
"1529863362087","14.0"
"1529863362087","15.0"
"1529863362087","16.0"
"1529863362107","18.0"
"1529863362108","19.0"
"1529863362108","21.0"
"1529863362108","22.0"
"1529863362108","23.0"
"1529863362109","24.0"
"1529863362129","26.0"
"1529863362129","27.0"
"1529863362129","28.0"
"1529863362129","29.0"
"1529863362130","30.0"
"1529863362130","31.0"
"1529863362130","32.0"
"1529863362130","33.0"
"1529863362130","34.0"
"1529863362150","35.0"
"1529863362151","36.0"
"1529863362151","37.0"
"1529863362151","38.0"
"1529863362153","39.0"
"1529863362173","40.0"
"1529863362173","41.0"
"1529863362174","42.0"
"1529863362174","43.0"
"1529863362194","44.0"
"1529863362194","45.0"
"1529863362195","46.0"
"1529863362195","47.0"
"1529863362215","48.0"
"1529863362216","49.0"
"1529863362216","50.0"
"1529863362236","51.0"
"1529863362237","52.0"
"1529863362237","53.0"
"1529863362257","54.0"
"1529863362257","55.0"
"1529863362257","56.0"
"1529863362258","57.0"
"1529863362258","58.0"
"1529863362258","59.0"
"1529863362278","60.0"
"1529863362279","61.0"
"1529863362279","62.0"
"1529863362300","61.0"
"1529863362300","60.0"
"1529863362300","59.0"
"1529863362300","57.0"
"1529863362321","56.0"
"1529863362321","54.0"
"1529863362321","52.0"
"1529863362321","50.0"
"1529863362321","48.0"
"1529863362322","45.0"
"1529863362322","42.0"
"1529863362322","40.0"
"1529863362342","36.0"
"1529863362343","33.0"
"1529863362343","30.0"
"1529863362343","26.0"
"1529863362343","22.0"
"1529863362343","19.0"
"1529863362364","15.0"
"1529863362364","11.0"
"1529863362364","8.0"
"1529863362385","4.0"
"1529863362385","0.0"
"1529863362385","-4.0"
"1529863362385","-8.0"
"1529863362385","-13.0"
"1529863362385","-17.0"
"1529863362385","-22.0"
"1529863362406","-26.0"
"1529863362406","-30.0"
"1529863362406","-35.0"
"1529863362406","-39.0"
"1529863362406","-44.0"
"1529863362407","-48.0"
"1529863362407","-53.0"
"1529863362407","-57.0"
"1529863362427","-62.0"
"1529863362428","-66.0"
"1529863362428","-71.0"
"1529863362428","-75.0"
"1529863362428","-79.0"
"1529863362428","-83.0"
"1529863362428","-87.0"
"1529863362449","-90.0"
"1529863362449","-94.0"
"1529863362449","-98.0"
"1529863362470","-102.0"
"1529863362471","-106.0"
"1529863362471","-109.0"
"1529863362471","-113.0"
"1529863362471","-116.0"
"1529863362471","-119.0"
"1529863362471","-122.0"
"1529863362471","-125.0"
"1529863362471","-128.0"
"1529863362472","-131.0"
"1529863362492","-134.0"
"1529863362493","-137.0"
"1529863362493","-139.0"
"1529863362493","-142.0"
"1529863362493","-145.0"
"1529863362493","-147.0"
"1529863362514","-149.0"
"1529863362514","-151.0"
"1529863362535","-153.0"
"1529863362535","-155.0"
"1529863362535","-157.0"
"1529863362535","-159.0"
"1529863362535","-161.0"
"1529863362536","-162.0"
"1529863362536","-164.0"
"1529863362536","-166.0"
"1529863362536","-167.0"
"1529863362536","-169.0"
"1529863362556","-170.0"
"1529863362557","-171.0"
"1529863362558","-172.0"
"1529863362558","-173.0"
"1529863362558","-174.0"
"1529863362560","-176.0"
"1529863362560","-177.0"
"1529863362561","-178.0"
"1529863362594","-179.0"
"1529863362594","-180.0"
"1529863362615","-181.0"
"1529863362615","-180.0"
"1529863362615","-179.0"
"1529863362615","-178.0"
"1529863362615","-177.0"
"1529863362615","-176.0"
"1529863362615","-174.0"
"1529863362636","-172.0"
"1529863362636","-170.0"
"1529863362636","-168.0"
"1529863362636","-166.0"
"1529863362636","-163.0"
"1529863362657","-161.0"
"1529863362657","-158.0"
"1529863362657","-155.0"
"1529863362657","-152.0"
"1529863362657","-149.0"
"1529863362658","-146.0"
"1529863362658","-143.0"
"1529863362678","-139.0"
"1529863362679","-136.0"
"1529863362679","-133.0"
"1529863362679","-129.0"
"1529863362679","-126.0"
"1529863362679","-122.0"
"1529863362700","-119.0"
"1529863362700","-115.0"
"1529863362701","-112.0"
"1529863362701","-108.0"
"1529863362701","-105.0"
"1529863362701","-101.0"
"1529863362703","-98.0"
"1529863362704","-95.0"
"1529863362704","-91.0"
"1529863362704","-88.0"
"1529863362725","-85.0"
"1529863362725","-82.0"
"1529863362725","-78.0"
"1529863362725","-75.0"
"1529863362725","-72.0"
"1529863362726","-69.0"
"1529863362726","-66.0"
"1529863362726","-63.0"
"1529863362726","-61.0"
"1529863362746","-58.0"
"1529863362747","-55.0"
"1529863362747","-52.0"
"1529863362747","-49.0"
"1529863362747","-46.0"
"1529863362747","-44.0"
"1529863362768","-41.0"
"1529863362768","-38.0"
"1529863362768","-36.0"
"1529863362768","-34.0"
"1529863362768","-31.0"
"1529863362768","-29.0"
"1529863362768","-27.0"
"1529863362768","-25.0"
"1529863362768","-23.0"
"1529863362789","-21.0"
"1529863362789","-20.0"
"1529863362789","-18.0"
"1529863362789","-16.0"
"1529863362789","-15.0"
"1529863362789","-13.0"
"1529863362810","-12.0"
"1529863362813","-10.0"
"1529863362813","-9.0"
"1529863362834","-8.0"
"1529863362834","-7.0"
"1529863362834","-5.0"
"1529863362834","-4.0"
"1529863362834","-3.0"
"1529863362834","-2.0"
"1529863362834","-1.0"
"1529863362834","0.0"
"1529863362835","1.0"
"1529863362855","2.0"
"1529863362855","3.0"
"1529863362855","4.0"
"1529863362855","5.0"
"1529863362876","6.0"
"1529863362897","7.0"
"1529863362897","8.0"
"1529863362897","9.0"
"1529863362898","10.0"
"1529863362918","11.0"
"1529863362918","12.0"
"1529863362939","13.0"
"1529863362939","14.0"
"1529863362939","15.0"
"1529863362939","16.0"
"1529863362965","17.0"
"1529863362991","18.0"
"1529863363012","19.0"
"1529863363012","20.0"
"1529863363033","21.0"
"1529863363074","22.0"
"1529863363117","21.0"
"1529863363138","20.0"
"1529863363138","19.0"
"1529863363138","18.0"
"1529863363139","17.0"
"1529863363159","16.0"
"1529863363159","15.0"
"1529863363159","14.0"
"1529863363180","13.0"
"1529863363181","12.0"
"1529863363181","11.0"
"1529863363201","10.0"
"1529863363243","9.0"
"1529863363263","8.0"
"1529863363264","7.0"
"1529863363284","6.0"
"1529863363284","5.0"
"1529863363328","4.0"
"1529863363349","3.0"
"1529863363391","4.0"
"1529863363411","5.0"
"1529863363411","6.0"
"1529863363432","7.0"
"1529863363678","8.0"
"1529863363678","9.0"
"1529863363698","10.0"
"1529863363720","11.0"
"1529863363720","12.0"
"1529863363720","13.0"
"1529863363720","14.0"
"1529863363720","15.0"
"1529863363721","16.0"
"1529863363742","17.0"
"1529863363763","18.0"
"1529863363847","17.0"
"1529863363868","16.0"
"1529863363888","15.0"
"1529863363910","14.0"
"1529863363910","13.0"
"1529863363931","12.0"
"1529863363952","11.0"
"1529863364077","10.0"
"1529863364097","9.0"
"1529863364119","8.0"
"1529863364120","7.0"
"1529863364141","6.0"
"1529863364182","5.0"
"1529863364203","4.0"
"1529863364224","3.0"
"1529863364224","2.0"
"1529863364245","1.0"
"1529863364266","0.0"
"1529863364309","1.0"
"1529863364329","2.0"
"1529863364330","3.0"
"1529863364350","4.0"
"1529863364371","5.0"
"1529863364392","6.0"
"1529863364392","7.0"
"1529863364413","8.0"
"1529863364495","7.0"
"1529863364517","6.0"
"1529863364558","5.0"
"1529863364581","4.0"
"1529863364637","3.0"
"1529863364658","2.0"
"1529863364658","1.0"
"1529863364659","0.0"
"1529863364679","-1.0"
"1529863364701","-2.0"
"1529863364701","-3.0"
"1529863364729","-4.0"
"1529863364750","-5.0"
"1529863364750","-6.0"
"1529863364791","-7.0"
"1529863364792","-8.0"
"1529863364812","-7.0"
"1529863364813","-6.0"
"1529863364875","-7.0"
"1529863364875","-6.0"
"1529863364896","-5.0"
"1529863364916","-4.0"
"1529863364916","-3.0"
"1529863364938","-2.0"
"1529863364959","-1.0"
"1529863364981","0.0"
"1529863365022","1.0"
"1529863365043","2.0"
"1529863365043","3.0"
"1529863365064","4.0"
"1529863365064","5.0"
"1529863365209","4.0"
"1529863365250","3.0"
"1529863365272","2.0"
"1529863365314","1.0"
"1529863365335","0.0"
"1529863365377","-1.0"
"1529863365398","-2.0"
"1529863365440","-3.0"
"1529863365483","-4.0"
"1529863365566","-5.0"
"1529863365630","-4.0"
"1529863365671","-3.0"
"1529863365692","-2.0"
"1529863365692","-1.0"
"1529863365713","0.0"
"1529863365714","1.0"
"1529863365714","2.0"
"1529863365716","3.0"
"1529863365716","4.0"
"1529863365737","5.0"
"1529863365765","6.0"
"1529863365766","7.0"
"1529863365787","8.0"
"1529863365808","9.0"
"1529863365808","10.0"
"1529863365829","11.0"
"1529863365849","12.0"
"1529863365912","11.0"
"1529863365933","10.0"
"1529863365955","9.0"
"1529863365976","8.0"
"1529863366059","7.0"
"1529863366080","6.0"
"1529863366101","5.0"
"1529863366122","4.0"
