"System Time Index","BVP Data"
"1528653735018","-3.0"
"1528653735018","-5.0"
"1528653735018","-7.0"
"1528653735019","-10.0"
"1528653735019","-12.0"
"1528653735019","-15.0"
"1528653735019","-18.0"
"1528653735019","-21.0"
"1528653735040","-25.0"
"1528653735040","-28.0"
"1528653735040","-32.0"
"1528653735040","-36.0"
"1528653735040","-40.0"
"1528653735040","-44.0"
"1528653735040","-48.0"
"1528653735061","-52.0"
"1528653735061","-57.0"
"1528653735061","-61.0"
"1528653735061","-65.0"
"1528653735061","-69.0"
"1528653735082","-73.0"
"1528653735082","-78.0"
"1528653735082","-82.0"
"1528653735083","-86.0"
"1528653735083","-91.0"
"1528653735083","-95.0"
"1528653735083","-99.0"
"1528653735083","-103.0"
"1528653735083","-107.0"
"1528653735083","-110.0"
"1528653735104","-113.0"
"1528653735104","-116.0"
"1528653735104","-119.0"
"1528653735125","-121.0"
"1528653735125","-124.0"
"1528653735126","-126.0"
"1528653735126","-127.0"
"1528653735126","-129.0"
"1528653735126","-130.0"
"1528653735126","-131.0"
"1528653735147","-130.0"
"1528653735147","-129.0"
"1528653735147","-128.0"
"1528653735168","-126.0"
"1528653735168","-124.0"
"1528653735168","-122.0"
"1528653735168","-119.0"
"1528653735168","-116.0"
"1528653735168","-113.0"
"1528653735168","-109.0"
"1528653735168","-105.0"
"1528653735168","-101.0"
"1528653735189","-97.0"
"1528653735189","-93.0"
"1528653735189","-89.0"
"1528653735189","-84.0"
"1528653735190","-80.0"
"1528653735190","-75.0"
"1528653735210","-71.0"
"1528653735210","-66.0"
"1528653735211","-61.0"
"1528653735211","-57.0"
"1528653735211","-52.0"
"1528653735211","-48.0"
"1528653735211","-43.0"
"1528653735231","-39.0"
"1528653735232","-35.0"
"1528653735232","-30.0"
"1528653735232","-26.0"
"1528653735232","-22.0"
"1528653735253","-18.0"
"1528653735253","-14.0"
"1528653735253","-10.0"
"1528653735253","-6.0"
"1528653735253","-2.0"
"1528653735253","1.0"
"1528653735253","5.0"
"1528653735277","9.0"
"1528653735278","11.0"
"1528653735298","12.0"
"1528653735340","13.0"
"1528653735361","14.0"
"1528653735382","15.0"
"1528653735444","16.0"
"1528653735444","14.0"
"1528653735444","11.0"
"1528653735465","8.0"
"1528653735465","6.0"
"1528653735465","3.0"
"1528653735465","0.0"
"1528653735465","-1.0"
"1528653735465","-3.0"
"1528653735486","-6.0"
"1528653735486","-8.0"
"1528653735487","-10.0"
"1528653735487","-12.0"
"1528653735488","-14.0"
"1528653735508","-17.0"
"1528653735509","-19.0"
"1528653735509","-21.0"
"1528653735509","-23.0"
"1528653735509","-25.0"
"1528653735510","-27.0"
"1528653735510","-29.0"
"1528653735530","-31.0"
"1528653735531","-33.0"
"1528653735531","-35.0"
"1528653735531","-37.0"
"1528653735531","-39.0"
"1528653735531","-41.0"
"1528653735531","-43.0"
"1528653735532","-45.0"
"1528653735532","-47.0"
"1528653735552","-50.0"
"1528653735553","-52.0"
"1528653735553","-54.0"
"1528653735553","-56.0"
"1528653735553","-58.0"
"1528653735553","-60.0"
"1528653735624","-62.0"
"1528653735624","-64.0"
"1528653735624","-66.0"
"1528653735625","-68.0"
"1528653735645","-70.0"
"1528653735645","-72.0"
"1528653735646","-75.0"
"1528653735646","-77.0"
"1528653735646","-79.0"
"1528653735666","-82.0"
"1528653735667","-84.0"
"1528653735667","-87.0"
"1528653735667","-90.0"
"1528653735667","-93.0"
"1528653735667","-97.0"
"1528653735667","-101.0"
"1528653735688","-105.0"
"1528653735688","-109.0"
"1528653735688","-113.0"
"1528653735688","-118.0"
"1528653735688","-123.0"
"1528653735688","-129.0"
"1528653735688","-134.0"
"1528653735688","-141.0"
"1528653735688","-147.0"
"1528653735709","-154.0"
"1528653735709","-161.0"
"1528653735709","-169.0"
"1528653735709","-176.0"
"1528653735709","-184.0"
"1528653735709","-192.0"
"1528653735709","-200.0"
"1528653735709","-208.0"
"1528653735709","-216.0"
"1528653735709","-224.0"
"1528653735710","-232.0"
"1528653735710","-240.0"
"1528653735710","-249.0"
"1528653735710","-257.0"
"1528653735710","-265.0"
"1528653735710","-273.0"
"1528653735710","-281.0"
"1528653735730","-289.0"
"1528653735731","-296.0"
"1528653735731","-303.0"
"1528653735731","-310.0"
"1528653735731","-316.0"
"1528653735731","-321.0"
"1528653735731","-326.0"
"1528653735731","-331.0"
"1528653735732","-335.0"
"1528653735732","-340.0"
"1528653735753","-343.0"
"1528653735753","-347.0"
"1528653735753","-350.0"
"1528653735753","-352.0"
"1528653735753","-354.0"
"1528653735753","-356.0"
"1528653735774","-357.0"
"1528653735774","-358.0"
"1528653735774","-357.0"
"1528653735774","-355.0"
"1528653735795","-353.0"
"1528653735795","-351.0"
"1528653735795","-348.0"
"1528653735795","-345.0"
"1528653735795","-342.0"
"1528653735795","-339.0"
"1528653735816","-335.0"
"1528653735816","-332.0"
"1528653735816","-328.0"
"1528653735817","-324.0"
"1528653735817","-320.0"
"1528653735817","-316.0"
"1528653735817","-313.0"
"1528653735838","-309.0"
"1528653735838","-305.0"
"1528653735838","-302.0"
"1528653735838","-299.0"
"1528653735838","-296.0"
"1528653735838","-293.0"
"1528653735866","-289.0"
"1528653735866","-286.0"
"1528653735866","-283.0"
"1528653735887","-279.0"
"1528653735887","-276.0"
"1528653735887","-272.0"
"1528653735887","-268.0"
"1528653735887","-265.0"
"1528653735887","-261.0"
"1528653735887","-257.0"
"1528653735887","-254.0"
"1528653735887","-251.0"
"1528653735887","-248.0"
"1528653735887","-246.0"
"1528653735887","-243.0"
"1528653735908","-241.0"
"1528653735908","-238.0"
"1528653735908","-235.0"
"1528653735908","-233.0"
"1528653735908","-230.0"
"1528653735908","-228.0"
"1528653735908","-225.0"
"1528653735909","-222.0"
"1528653735909","-219.0"
"1528653735929","-215.0"
"1528653735929","-211.0"
"1528653735929","-207.0"
"1528653735930","-202.0"
"1528653735930","-197.0"
"1528653735930","-191.0"
"1528653735951","-186.0"
"1528653735951","-180.0"
"1528653735951","-174.0"
"1528653735951","-169.0"
"1528653735951","-164.0"
"1528653735952","-159.0"
"1528653735972","-154.0"
"1528653735972","-149.0"
"1528653735972","-145.0"
"1528653735972","-141.0"
"1528653735973","-138.0"
"1528653735973","-135.0"
"1528653735994","-133.0"
"1528653735994","-130.0"
"1528653735994","-129.0"
"1528653735994","-127.0"
"1528653735994","-126.0"
"1528653735995","-125.0"
"1528653736015","-124.0"
"1528653736015","-123.0"
"1528653736015","-122.0"
"1528653736036","-121.0"
"1528653736036","-120.0"
"1528653736036","-119.0"
"1528653736036","-118.0"
"1528653736036","-117.0"
"1528653736057","-116.0"
"1528653736057","-114.0"
"1528653736057","-113.0"
"1528653736057","-112.0"
"1528653736057","-110.0"
"1528653736057","-109.0"
"1528653736078","-108.0"
"1528653736078","-106.0"
"1528653736078","-104.0"
"1528653736078","-103.0"
"1528653736078","-101.0"
"1528653736099","-99.0"
"1528653736099","-96.0"
"1528653736099","-94.0"
"1528653736099","-92.0"
"1528653736099","-89.0"
"1528653736099","-87.0"
"1528653736099","-84.0"
"1528653736099","-82.0"
"1528653736100","-79.0"
"1528653736100","-75.0"
"1528653736120","-72.0"
"1528653736120","-68.0"
"1528653736121","-65.0"
"1528653736141","-61.0"
"1528653736142","-57.0"
"1528653736142","-53.0"
"1528653736142","-48.0"
"1528653736142","-44.0"
"1528653736142","-39.0"
"1528653736163","-33.0"
"1528653736163","-27.0"
"1528653736163","-20.0"
"1528653736164","-13.0"
"1528653736164","-6.0"
"1528653736164","0.0"
"1528653736164","6.0"
"1528653736164","13.0"
"1528653736164","19.0"
"1528653736164","25.0"
"1528653736185","31.0"
"1528653736185","37.0"
"1528653736185","42.0"
"1528653736185","47.0"
"1528653736185","51.0"
"1528653736186","55.0"
"1528653736206","59.0"
"1528653736206","63.0"
"1528653736227","66.0"
"1528653736227","68.0"
"1528653736227","71.0"
"1528653736248","72.0"
"1528653736248","74.0"
"1528653736248","75.0"
"1528653736248","76.0"
"1528653736248","75.0"
"1528653736248","73.0"
"1528653736269","72.0"
"1528653736269","70.0"
"1528653736269","68.0"
"1528653736269","66.0"
"1528653736269","64.0"
"1528653736269","61.0"
"1528653736290","58.0"
"1528653736290","55.0"
"1528653736290","52.0"
"1528653736290","50.0"
"1528653736291","47.0"
"1528653736291","44.0"
"1528653736291","41.0"
"1528653736291","39.0"
"1528653736311","36.0"
"1528653736312","33.0"
"1528653736312","31.0"
"1528653736312","29.0"
"1528653736312","26.0"
"1528653736312","24.0"
"1528653736312","22.0"
"1528653736312","20.0"
"1528653736312","18.0"
"1528653736333","16.0"
"1528653736333","14.0"
"1528653736334","13.0"
"1528653736334","11.0"
"1528653736334","9.0"
"1528653736334","8.0"
"1528653736355","6.0"
"1528653736355","4.0"
"1528653736355","2.0"
"1528653736355","0.0"
"1528653736355","-1.0"
"1528653736355","-3.0"
"1528653736355","-5.0"
"1528653736376","-8.0"
"1528653736376","-10.0"
"1528653736376","-12.0"
"1528653736376","-14.0"
"1528653736376","-17.0"
"1528653736376","-18.0"
"1528653736397","-20.0"
"1528653736397","-22.0"
"1528653736397","-23.0"
"1528653736397","-25.0"
"1528653736397","-26.0"
"1528653736398","-27.0"
"1528653736398","-28.0"
"1528653736419","-29.0"
"1528653736419","-30.0"
"1528653736439","-31.0"
"1528653736440","-32.0"
"1528653736440","-33.0"
"1528653736440","-34.0"
"1528653736440","-35.0"
"1528653736461","-34.0"
"1528653736481","-33.0"
"1528653736482","-32.0"
"1528653736482","-31.0"
"1528653736482","-30.0"
"1528653736483","-29.0"
"1528653736503","-28.0"
"1528653736503","-27.0"
"1528653736504","-26.0"
"1528653736504","-24.0"
"1528653736504","-23.0"
"1528653736504","-22.0"
"1528653736524","-20.0"
"1528653736524","-19.0"
"1528653736524","-17.0"
"1528653736524","-16.0"
"1528653736525","-14.0"
"1528653736525","-12.0"
"1528653736525","-11.0"
"1528653736525","-10.0"
"1528653736545","-9.0"
"1528653736546","-8.0"
"1528653736546","-7.0"
"1528653736567","-6.0"
"1528653736588","-7.0"
"1528653736588","-8.0"
"1528653736684","-7.0"
"1528653736684","-6.0"
"1528653736684","-5.0"
"1528653736684","-4.0"
"1528653736705","-2.0"
"1528653736705","-1.0"
"1528653736705","0.0"
"1528653736705","1.0"
"1528653736705","2.0"
"1528653736705","4.0"
"1528653736726","6.0"
"1528653736726","8.0"
"1528653736726","9.0"
"1528653736726","11.0"
"1528653736726","13.0"
"1528653736726","14.0"
"1528653736726","15.0"
"1528653736726","16.0"
"1528653736726","17.0"
"1528653736747","18.0"
"1528653736747","19.0"
"1528653736747","18.0"
"1528653736747","17.0"
"1528653736768","16.0"
"1528653736768","15.0"
"1528653736768","14.0"
"1528653736768","12.0"
"1528653736768","11.0"
"1528653736768","9.0"
"1528653736768","8.0"
"1528653736769","6.0"
"1528653736769","4.0"
"1528653736769","1.0"
"1528653736769","0.0"
"1528653736790","-3.0"
"1528653736790","-7.0"
"1528653736790","-10.0"
"1528653736790","-15.0"
"1528653736790","-20.0"
"1528653736790","-26.0"
"1528653736790","-32.0"
"1528653736791","-41.0"
"1528653736791","-50.0"
"1528653736791","-62.0"
"1528653736811","-74.0"
"1528653736812","-87.0"
"1528653736812","-100.0"
"1528653736832","-113.0"
"1528653736833","-126.0"
"1528653736833","-139.0"
"1528653736833","-151.0"
"1528653736833","-163.0"
"1528653736833","-175.0"
"1528653736854","-186.0"
"1528653736854","-197.0"
"1528653736854","-208.0"
"1528653736854","-218.0"
"1528653736854","-228.0"
"1528653736854","-237.0"
"1528653736854","-246.0"
"1528653736875","-254.0"
"1528653736875","-262.0"
"1528653736875","-269.0"
"1528653736875","-277.0"
"1528653736875","-283.0"
"1528653736875","-290.0"
"1528653736896","-296.0"
"1528653736896","-302.0"
"1528653736896","-308.0"
"1528653736896","-313.0"
"1528653736896","-318.0"
"1528653736896","-323.0"
"1528653736917","-328.0"
"1528653736917","-332.0"
"1528653736917","-336.0"
"1528653736917","-340.0"
"1528653736918","-343.0"
"1528653736918","-346.0"
"1528653736938","-349.0"
"1528653736939","-351.0"
"1528653736939","-353.0"
"1528653736939","-355.0"
"1528653736939","-357.0"
"1528653736940","-359.0"
"1528653736960","-361.0"
"1528653736960","-362.0"
"1528653736961","-363.0"
"1528653736961","-364.0"
"1528653736961","-365.0"
"1528653736961","-364.0"
"1528653736982","-363.0"
"1528653736982","-362.0"
"1528653736982","-361.0"
"1528653736982","-359.0"
"1528653736982","-356.0"
"1528653737003","-353.0"
"1528653737003","-350.0"
"1528653737003","-346.0"
"1528653737003","-342.0"
"1528653737003","-337.0"
"1528653737003","-332.0"
"1528653737004","-328.0"
"1528653737004","-323.0"
"1528653737004","-318.0"
"1528653737004","-314.0"
"1528653737024","-310.0"
"1528653737024","-306.0"
"1528653737024","-303.0"
"1528653737045","-300.0"
"1528653737045","-298.0"
"1528653737045","-296.0"
"1528653737045","-294.0"
"1528653737045","-293.0"
"1528653737045","-292.0"
"1528653737045","-290.0"
"1528653737066","-288.0"
"1528653737066","-285.0"
"1528653737066","-282.0"
"1528653737066","-279.0"
"1528653737066","-275.0"
"1528653737066","-270.0"
"1528653737066","-266.0"
"1528653737066","-261.0"
"1528653737087","-255.0"
"1528653737087","-249.0"
"1528653737087","-243.0"
"1528653737087","-237.0"
"1528653737087","-231.0"
"1528653737087","-224.0"
"1528653737108","-218.0"
"1528653737108","-211.0"
"1528653737108","-204.0"
"1528653737108","-198.0"
"1528653737108","-191.0"
"1528653737108","-184.0"
"1528653737108","-177.0"
"1528653737129","-170.0"
"1528653737129","-164.0"
"1528653737129","-157.0"
"1528653737129","-150.0"
"1528653737129","-143.0"
"1528653737130","-137.0"
"1528653737150","-130.0"
"1528653737150","-124.0"
"1528653737150","-117.0"
"1528653737171","-111.0"
"1528653737171","-104.0"
"1528653737171","-97.0"
"1528653737172","-91.0"
"1528653737172","-84.0"
"1528653737172","-77.0"
"1528653737192","-71.0"
"1528653737193","-64.0"
"1528653737193","-58.0"
"1528653737193","-51.0"
"1528653737193","-45.0"
"1528653737193","-39.0"
"1528653737214","-33.0"
"1528653737215","-28.0"
"1528653737215","-22.0"
"1528653737215","-16.0"
"1528653737215","-10.0"
"1528653737215","-4.0"
"1528653737215","1.0"
"1528653737215","6.0"
"1528653737215","11.0"
"1528653737236","17.0"
"1528653737236","22.0"
"1528653737236","27.0"
"1528653737236","32.0"
"1528653737236","38.0"
"1528653737236","44.0"
"1528653737257","51.0"
"1528653737257","58.0"
"1528653737258","65.0"
"1528653737278","72.0"
"1528653737278","80.0"
"1528653737279","88.0"
"1528653737279","96.0"
"1528653737279","105.0"
"1528653737279","113.0"
"1528653737280","121.0"
"1528653737301","127.0"
"1528653737301","128.0"
"1528653737302","129.0"
"1528653737302","130.0"
"1528653737322","131.0"
"1528653737322","132.0"
"1528653737343","133.0"
"1528653737343","134.0"
"1528653737343","135.0"
"1528653737343","136.0"
"1528653737364","137.0"
"1528653737364","138.0"
"1528653737364","139.0"
"1528653737364","140.0"
"1528653737364","141.0"
"1528653737385","142.0"
"1528653737385","143.0"
"1528653737385","144.0"
"1528653737385","145.0"
"1528653737405","146.0"
"1528653737406","147.0"
"1528653737406","148.0"
"1528653737406","149.0"
"1528653737406","150.0"
"1528653737427","151.0"
"1528653737427","152.0"
"1528653737427","153.0"
"1528653737428","154.0"
"1528653737428","155.0"
"1528653737428","156.0"
"1528653737449","157.0"
"1528653737449","158.0"
"1528653737450","159.0"
"1528653737451","160.0"
"1528653737451","161.0"
"1528653737471","162.0"
"1528653737472","163.0"
"1528653737472","164.0"
"1528653737472","165.0"
"1528653737472","166.0"
"1528653737472","167.0"
"1528653737472","168.0"
"1528653737493","169.0"
"1528653737493","170.0"
"1528653737514","171.0"
"1528653737514","172.0"
"1528653737535","173.0"
"1528653737535","152.0"
"1528653737535","129.0"
"1528653737535","106.0"
"1528653737535","82.0"
"1528653737535","57.0"
"1528653737535","33.0"
"1528653737536","9.0"
"1528653737556","-14.0"
"1528653737557","-36.0"
"1528653737557","-59.0"
"1528653737616","-81.0"
"1528653737616","-103.0"
"1528653737617","-126.0"
"1528653737637","-148.0"
"1528653737637","-170.0"
"1528653737637","-191.0"
"1528653737681","-212.0"
"1528653737681","-233.0"
"1528653737701","-253.0"
"1528653737701","-272.0"
"1528653737701","-292.0"
"1528653737702","-311.0"
"1528653737702","-330.0"
"1528653737702","-348.0"
"1528653737702","-366.0"
"1528653737702","-383.0"
"1528653737702","-400.0"
"1528653737702","-416.0"
"1528653737702","-431.0"
"1528653737702","-444.0"
"1528653737723","-457.0"
"1528653737723","-469.0"
"1528653737723","-479.0"
"1528653737723","-488.0"
"1528653737723","-496.0"
"1528653737723","-503.0"
"1528653737723","-510.0"
"1528653737723","-517.0"
"1528653737723","-524.0"
"1528653737723","-530.0"
"1528653737723","-536.0"
"1528653737723","-542.0"
"1528653737723","-548.0"
"1528653737723","-554.0"
"1528653737723","-560.0"
"1528653737723","-566.0"
"1528653737723","-572.0"
"1528653737723","-577.0"
"1528653737724","-583.0"
"1528653737724","-588.0"
"1528653737724","-593.0"
"1528653737724","-597.0"
"1528653737724","-600.0"
"1528653737724","-603.0"
"1528653737724","-604.0"
"1528653737744","-605.0"
"1528653737744","-603.0"
"1528653737744","-601.0"
"1528653737744","-597.0"
"1528653737745","-593.0"
"1528653737745","-588.0"
"1528653737745","-581.0"
"1528653737745","-574.0"
"1528653737745","-566.0"
"1528653737765","-557.0"
"1528653737766","-547.0"
"1528653737766","-537.0"
"1528653737766","-527.0"
"1528653737766","-517.0"
"1528653737766","-506.0"
"1528653737766","-496.0"
"1528653737766","-485.0"
"1528653737766","-476.0"
"1528653737787","-466.0"
"1528653737787","-456.0"
"1528653737787","-447.0"
"1528653737787","-439.0"
"1528653737787","-430.0"
"1528653737787","-422.0"
"1528653737787","-413.0"
"1528653737787","-405.0"
"1528653737808","-397.0"
"1528653737808","-389.0"
"1528653737808","-381.0"
"1528653737808","-373.0"
"1528653737829","-364.0"
"1528653737829","-356.0"
"1528653737830","-347.0"
"1528653737830","-338.0"
"1528653737830","-329.0"
"1528653737830","-320.0"
"1528653737830","-310.0"
"1528653737830","-301.0"
"1528653737851","-290.0"
"1528653737852","-279.0"
"1528653737852","-268.0"
"1528653737852","-256.0"
"1528653737852","-242.0"
"1528653737852","-228.0"
"1528653737853","-214.0"
"1528653737873","-198.0"
"1528653737874","-182.0"
"1528653737874","-165.0"
"1528653737874","-147.0"
"1528653737874","-129.0"
"1528653737874","-111.0"
"1528653737895","-92.0"
"1528653737895","-72.0"
"1528653737895","-52.0"
"1528653737895","-32.0"
"1528653737895","-11.0"
"1528653737895","9.0"
"1528653737916","30.0"
"1528653737917","52.0"
"1528653737917","74.0"
"1528653737917","96.0"
"1528653737917","120.0"
"1528653737917","144.0"
"1528653737938","169.0"
"1528653737938","195.0"
"1528653737938","221.0"
"1528653737938","240.0"
"1528653737938","241.0"
"1528653737958","242.0"
"1528653737959","243.0"
"1528653737959","244.0"
"1528653737959","245.0"
"1528653737980","246.0"
"1528653737980","247.0"
"1528653737980","248.0"
"1528653737980","249.0"
"1528653737980","250.0"
"1528653737980","251.0"
"1528653738000","252.0"
"1528653738001","253.0"
"1528653738001","254.0"
"1528653738001","256.0"
"1528653738001","257.0"
"1528653738021","258.0"
"1528653738021","259.0"
"1528653738021","260.0"
"1528653738022","262.0"
"1528653738022","263.0"
"1528653738022","264.0"
"1528653738022","266.0"
"1528653738042","267.0"
"1528653738042","268.0"
"1528653738042","270.0"
"1528653738043","271.0"
"1528653738043","272.0"
"1528653738043","274.0"
"1528653738043","275.0"
"1528653738043","276.0"
"1528653738043","278.0"
"1528653738063","279.0"
"1528653738063","280.0"
"1528653738063","282.0"
"1528653738064","283.0"
"1528653738064","284.0"
"1528653738064","286.0"
"1528653738084","287.0"
"1528653738085","288.0"
"1528653738085","289.0"
"1528653738085","291.0"
"1528653738085","292.0"
"1528653738085","293.0"
"1528653738085","294.0"
"1528653738106","295.0"
"1528653738106","296.0"
"1528653738106","298.0"
"1528653738107","299.0"
"1528653738107","300.0"
"1528653738107","301.0"
"1528653738127","302.0"
"1528653738127","303.0"
"1528653738127","304.0"
"1528653738128","305.0"
"1528653738128","306.0"
"1528653738128","307.0"
"1528653738148","308.0"
"1528653738148","309.0"
"1528653738148","310.0"
"1528653738149","311.0"
"1528653738169","312.0"
"1528653738170","313.0"
"1528653738170","314.0"
"1528653738170","315.0"
"1528653738170","316.0"
"1528653738170","317.0"
"1528653738191","318.0"
"1528653738211","319.0"
"1528653738211","320.0"
"1528653738211","321.0"
"1528653738211","322.0"
"1528653738232","319.0"
"1528653738232","306.0"
"1528653738232","293.0"
"1528653738233","280.0"
"1528653738233","266.0"
"1528653738233","253.0"
"1528653738233","239.0"
"1528653738254","225.0"
"1528653738254","211.0"
"1528653738254","197.0"
"1528653738254","184.0"
"1528653738254","170.0"
"1528653738254","156.0"
"1528653738275","142.0"
"1528653738275","128.0"
"1528653738295","115.0"
"1528653738296","101.0"
"1528653738296","87.0"
"1528653738296","74.0"
"1528653738296","60.0"
"1528653738296","46.0"
"1528653738296","33.0"
"1528653738296","19.0"
"1528653738296","5.0"
"1528653738297","-7.0"
"1528653738297","-20.0"
"1528653738297","-33.0"
"1528653738297","-44.0"
"1528653738317","-56.0"
"1528653738318","-66.0"
"1528653738318","-76.0"
"1528653738318","-86.0"
"1528653738318","-96.0"
"1528653738318","-105.0"
"1528653738318","-114.0"
"1528653738339","-122.0"
"1528653738339","-130.0"
"1528653738339","-138.0"
"1528653738340","-145.0"
"1528653738340","-152.0"
"1528653738340","-159.0"
"1528653738361","-165.0"
"1528653738361","-171.0"
"1528653738381","-177.0"
"1528653738381","-183.0"
"1528653738382","-190.0"
"1528653738382","-196.0"
"1528653738382","-202.0"
"1528653738382","-209.0"
"1528653738382","-215.0"
"1528653738402","-221.0"
"1528653738403","-227.0"
"1528653738403","-233.0"
"1528653738403","-239.0"
"1528653738403","-245.0"
"1528653738403","-251.0"
"1528653738403","-257.0"
"1528653738403","-264.0"
"1528653738403","-271.0"
"1528653738424","-279.0"
"1528653738424","-288.0"
"1528653738424","-297.0"
"1528653738445","-306.0"
"1528653738445","-316.0"
"1528653738445","-327.0"
"1528653738445","-338.0"
"1528653738445","-349.0"
"1528653738445","-361.0"
"1528653738445","-373.0"
"1528653738445","-384.0"
"1528653738445","-396.0"
"1528653738466","-406.0"
"1528653738466","-416.0"
"1528653738466","-425.0"
"1528653738466","-434.0"
"1528653738466","-441.0"
"1528653738466","-447.0"
"1528653738466","-452.0"
"1528653738466","-455.0"
"1528653738487","-458.0"
"1528653738487","-460.0"
"1528653738488","-461.0"
"1528653738488","-460.0"
"1528653738508","-458.0"
"1528653738508","-457.0"
"1528653738508","-455.0"
"1528653738508","-452.0"
"1528653738509","-449.0"
"1528653738509","-447.0"
"1528653738509","-443.0"
"1528653738509","-440.0"
"1528653738529","-436.0"
"1528653738530","-432.0"
"1528653738530","-428.0"
"1528653738530","-424.0"
"1528653738530","-419.0"
"1528653738530","-415.0"
"1528653738530","-410.0"
"1528653738551","-405.0"
"1528653738551","-399.0"
"1528653738574","-394.0"
"1528653738574","-389.0"
"1528653738574","-384.0"
"1528653738574","-379.0"
"1528653738595","-375.0"
"1528653738596","-371.0"
"1528653738596","-367.0"
"1528653738596","-363.0"
"1528653738596","-360.0"
"1528653738651","-357.0"
"1528653738651","-354.0"
"1528653738651","-351.0"
"1528653738651","-348.0"
"1528653738672","-345.0"
"1528653738672","-341.0"
"1528653738672","-337.0"
"1528653738672","-333.0"
"1528653738672","-328.0"
"1528653738672","-323.0"
"1528653738693","-318.0"
"1528653738693","-311.0"
"1528653738693","-305.0"
"1528653738693","-298.0"
"1528653738693","-290.0"
"1528653738693","-282.0"
"1528653738693","-274.0"
"1528653738694","-265.0"
"1528653738694","-256.0"
"1528653738694","-247.0"
"1528653738694","-237.0"
"1528653738694","-228.0"
"1528653738694","-218.0"
"1528653738694","-209.0"
"1528653738694","-199.0"
"1528653738694","-189.0"
"1528653738694","-180.0"
"1528653738694","-170.0"
"1528653738715","-160.0"
"1528653738715","-150.0"
"1528653738715","-140.0"
"1528653738715","-131.0"
"1528653738715","-121.0"
"1528653738715","-112.0"
"1528653738716","-103.0"
"1528653738716","-95.0"
"1528653738716","-87.0"
"1528653738716","-79.0"
"1528653738716","-72.0"
"1528653738716","-66.0"
"1528653738716","-60.0"
"1528653738716","-54.0"
"1528653738716","-50.0"
"1528653738737","-45.0"
"1528653738737","-41.0"
"1528653738737","-38.0"
"1528653738737","-35.0"
"1528653738737","-32.0"
"1528653738737","-30.0"
"1528653738758","-28.0"
"1528653738758","-25.0"
"1528653738758","-23.0"
"1528653738758","-21.0"
"1528653738758","-19.0"
"1528653738758","-18.0"
"1528653738779","-17.0"
"1528653738780","-16.0"
"1528653738780","-14.0"
"1528653738780","-13.0"
"1528653738780","-12.0"
"1528653738780","-10.0"
"1528653738801","-7.0"
"1528653738801","-5.0"
"1528653738801","-2.0"
"1528653738822","0.0"
"1528653738822","3.0"
"1528653738822","7.0"
"1528653738822","10.0"
"1528653738823","13.0"
"1528653738823","17.0"
"1528653738823","19.0"
"1528653738823","22.0"
"1528653738823","25.0"
"1528653738843","27.0"
"1528653738844","30.0"
"1528653738844","31.0"
"1528653738844","33.0"
"1528653738844","34.0"
"1528653738844","35.0"
"1528653738865","36.0"
"1528653738865","35.0"
"1528653738886","34.0"
"1528653738886","33.0"
"1528653738907","34.0"
"1528653738907","35.0"
"1528653738907","36.0"
"1528653738907","38.0"
"1528653738907","40.0"
"1528653738928","42.0"
"1528653738928","44.0"
"1528653738928","46.0"
"1528653738949","49.0"
"1528653738949","52.0"
"1528653738949","54.0"
"1528653738949","57.0"
"1528653738949","59.0"
"1528653738950","62.0"
"1528653738950","64.0"
"1528653738950","65.0"
"1528653738950","67.0"
"1528653738970","68.0"
"1528653738971","67.0"
"1528653738991","66.0"
"1528653738992","65.0"
"1528653738992","63.0"
"1528653738992","62.0"
"1528653738992","60.0"
"1528653739013","57.0"
"1528653739013","55.0"
"1528653739013","52.0"
"1528653739013","50.0"
"1528653739013","47.0"
"1528653739013","44.0"
"1528653739013","42.0"
"1528653739014","40.0"
"1528653739034","37.0"
"1528653739034","35.0"
"1528653739034","33.0"
"1528653739034","30.0"
"1528653739034","28.0"
"1528653739034","27.0"
"1528653739055","26.0"
"1528653739055","27.0"
"1528653739055","29.0"
"1528653739055","31.0"
"1528653739055","34.0"
"1528653739076","37.0"
"1528653739076","40.0"
"1528653739076","44.0"
"1528653739076","48.0"
"1528653739077","53.0"
"1528653739097","58.0"
"1528653739097","63.0"
"1528653739097","68.0"
"1528653739097","74.0"
"1528653739097","80.0"
"1528653739097","86.0"
"1528653739118","92.0"
"1528653739118","98.0"
"1528653739118","104.0"
"1528653739118","110.0"
"1528653739118","116.0"
"1528653739118","122.0"
"1528653739119","128.0"
"1528653739119","135.0"
"1528653739119","141.0"
"1528653739119","147.0"
"1528653739140","153.0"
"1528653739140","158.0"
"1528653739140","164.0"
"1528653739140","169.0"
"1528653739140","174.0"
"1528653739140","179.0"
"1528653739161","184.0"
"1528653739161","189.0"
"1528653739161","194.0"
"1528653739161","199.0"
"1528653739182","204.0"
"1528653739182","210.0"
"1528653739182","215.0"
"1528653739182","220.0"
"1528653739182","225.0"
"1528653739182","230.0"
"1528653739182","234.0"
"1528653739182","239.0"
"1528653739203","243.0"
"1528653739203","247.0"
"1528653739203","251.0"
"1528653739203","254.0"
"1528653739224","257.0"
"1528653739224","259.0"
"1528653739224","261.0"
"1528653739224","263.0"
"1528653739224","264.0"
"1528653739245","265.0"
"1528653739245","264.0"
"1528653739245","263.0"
"1528653739245","262.0"
"1528653739245","260.0"
"1528653739266","258.0"
"1528653739266","256.0"
"1528653739266","254.0"
"1528653739266","251.0"
"1528653739266","247.0"
"1528653739266","244.0"
"1528653739287","240.0"
"1528653739287","235.0"
"1528653739287","230.0"
"1528653739287","225.0"
"1528653739287","220.0"
"1528653739287","214.0"
"1528653739288","208.0"
"1528653739288","202.0"
"1528653739308","196.0"
"1528653739308","190.0"
"1528653739308","183.0"
"1528653739308","177.0"
"1528653739308","171.0"
"1528653739308","165.0"
"1528653739308","160.0"
"1528653739329","155.0"
"1528653739330","150.0"
"1528653739330","146.0"
"1528653739330","142.0"
"1528653739330","138.0"
"1528653739350","135.0"
"1528653739350","131.0"
"1528653739351","128.0"
"1528653739351","125.0"
"1528653739351","122.0"
"1528653739351","118.0"
"1528653739351","115.0"
"1528653739372","112.0"
"1528653739373","109.0"
"1528653739373","105.0"
"1528653739373","102.0"
"1528653739373","98.0"
"1528653739373","94.0"
"1528653739394","91.0"
"1528653739394","87.0"
"1528653739394","84.0"
"1528653739394","81.0"
"1528653739394","78.0"
"1528653739394","75.0"
"1528653739394","72.0"
"1528653739394","70.0"
"1528653739394","68.0"
"1528653739415","67.0"
"1528653739415","66.0"
"1528653739415","65.0"
"1528653739415","64.0"
"1528653739436","65.0"
"1528653739436","66.0"
"1528653739436","68.0"
"1528653739436","69.0"
"1528653739436","71.0"
"1528653739436","74.0"
"1528653739457","77.0"
"1528653739457","80.0"
"1528653739457","83.0"
"1528653739457","87.0"
"1528653739457","91.0"
"1528653739457","95.0"
"1528653739478","100.0"
"1528653739478","105.0"
"1528653739478","110.0"
"1528653739478","116.0"
"1528653739478","121.0"
"1528653739478","127.0"
"1528653739499","132.0"
"1528653739499","136.0"
"1528653739499","141.0"
"1528653739499","145.0"
"1528653739499","149.0"
"1528653739519","152.0"
"1528653739520","156.0"
"1528653739520","159.0"
"1528653739520","162.0"
"1528653739520","165.0"
"1528653739520","168.0"
"1528653739520","171.0"
"1528653739541","174.0"
"1528653739541","177.0"
"1528653739541","180.0"
"1528653739541","183.0"
"1528653739541","186.0"
"1528653739562","188.0"
"1528653739562","191.0"
"1528653739562","194.0"
"1528653739562","198.0"
"1528653739562","201.0"
"1528653739562","204.0"
"1528653739563","207.0"
"1528653739584","211.0"
"1528653739585","215.0"
"1528653739585","219.0"
"1528653739606","224.0"
"1528653739606","229.0"
"1528653739606","234.0"
"1528653739606","239.0"
"1528653739606","245.0"
"1528653739607","251.0"
"1528653739627","257.0"
"1528653739627","263.0"
"1528653739628","269.0"
"1528653739628","276.0"
"1528653739648","283.0"
"1528653739648","291.0"
"1528653739648","298.0"
"1528653739648","306.0"
"1528653739649","315.0"
"1528653739669","324.0"
"1528653739669","333.0"
"1528653739669","342.0"
"1528653739669","350.0"
"1528653739669","351.0"
"1528653739719","352.0"
"1528653739719","353.0"
"1528653739740","354.0"
"1528653739740","355.0"
"1528653739740","356.0"
"1528653739740","357.0"
"1528653739740","358.0"
"1528653739740","359.0"
"1528653739740","360.0"
"1528653739741","361.0"
"1528653739741","362.0"
"1528653739741","363.0"
"1528653739761","364.0"
"1528653739761","365.0"
"1528653739762","366.0"
"1528653739762","367.0"
"1528653739762","368.0"
"1528653739762","369.0"
"1528653739762","370.0"
"1528653739762","371.0"
"1528653739783","372.0"
"1528653739783","373.0"
"1528653739783","374.0"
"1528653739783","375.0"
"1528653739783","376.0"
"1528653739784","377.0"
"1528653739784","378.0"
"1528653739784","379.0"
"1528653739784","380.0"
"1528653739784","381.0"
"1528653739784","382.0"
"1528653739784","383.0"
"1528653739784","384.0"
"1528653739805","385.0"
"1528653739805","386.0"
"1528653739805","384.0"
"1528653739805","373.0"
"1528653739826","363.0"
"1528653739826","352.0"
"1528653739826","341.0"
"1528653739847","331.0"
"1528653739847","320.0"
"1528653739847","310.0"
"1528653739847","300.0"
"1528653739847","289.0"
"1528653739847","279.0"
"1528653739847","269.0"
"1528653739848","260.0"
"1528653739848","250.0"
"1528653739868","241.0"
"1528653739868","231.0"
"1528653739868","222.0"
"1528653739868","213.0"
"1528653739869","205.0"
"1528653739869","196.0"
"1528653739889","188.0"
"1528653739889","179.0"
"1528653739890","171.0"
"1528653739890","164.0"
"1528653739890","156.0"
"1528653739890","149.0"
"1528653739911","141.0"
"1528653739911","134.0"
"1528653739911","127.0"
"1528653739911","121.0"
"1528653739911","114.0"
"1528653739911","108.0"
"1528653739911","102.0"
"1528653739932","96.0"
"1528653739932","91.0"
"1528653739932","85.0"
"1528653739932","80.0"
"1528653739932","75.0"
"1528653739953","70.0"
"1528653739953","65.0"
"1528653739953","60.0"
"1528653739954","56.0"
"1528653739954","51.0"
"1528653739954","46.0"
"1528653739954","41.0"
"1528653739954","37.0"
"1528653739954","33.0"
"1528653739954","29.0"
"1528653739975","26.0"
"1528653739975","23.0"
"1528653739975","20.0"
"1528653739975","17.0"
"1528653739975","15.0"
"1528653739975","12.0"
"1528653739996","10.0"
"1528653739996","8.0"
"1528653739996","6.0"
"1528653739996","4.0"
"1528653739996","2.0"
"1528653739996","1.0"
"1528653740017","0.0"
"1528653740017","-1.0"
"1528653740017","-3.0"
"1528653740018","-4.0"
"1528653740018","-5.0"
"1528653740018","-6.0"
"1528653740038","-8.0"
"1528653740038","-9.0"
"1528653740039","-10.0"
"1528653740039","-11.0"
"1528653740059","-13.0"
"1528653740060","-15.0"
"1528653740060","-17.0"
"1528653740060","-20.0"
"1528653740060","-23.0"
"1528653740060","-26.0"
"1528653740060","-28.0"
"1528653740061","-31.0"
"1528653740061","-34.0"
"1528653740081","-37.0"
"1528653740082","-40.0"
"1528653740082","-43.0"
"1528653740082","-46.0"
"1528653740082","-49.0"
"1528653740082","-53.0"
"1528653740102","-57.0"
"1528653740103","-61.0"
"1528653740103","-65.0"
"1528653740103","-69.0"
"1528653740103","-72.0"
"1528653740103","-76.0"
"1528653740124","-80.0"
"1528653740124","-84.0"
"1528653740124","-88.0"
"1528653740124","-93.0"
"1528653740124","-97.0"
"1528653740124","-101.0"
"1528653740124","-105.0"
"1528653740125","-110.0"
"1528653740145","-114.0"
"1528653740145","-118.0"
"1528653740145","-122.0"
"1528653740166","-126.0"
"1528653740166","-130.0"
"1528653740166","-134.0"
"1528653740166","-139.0"
"1528653740167","-143.0"
"1528653740167","-147.0"
"1528653740188","-152.0"
"1528653740188","-156.0"
"1528653740188","-160.0"
"1528653740188","-164.0"
"1528653740188","-168.0"
"1528653740189","-172.0"
"1528653740209","-176.0"
"1528653740210","-180.0"
"1528653740210","-183.0"
"1528653740210","-187.0"
"1528653740210","-190.0"
"1528653740210","-194.0"
"1528653740210","-196.0"
"1528653740210","-199.0"
"1528653740210","-201.0"
"1528653740210","-203.0"
"1528653740231","-205.0"
"1528653740231","-207.0"
"1528653740231","-209.0"
"1528653740252","-211.0"
"1528653740252","-213.0"
"1528653740252","-214.0"
"1528653740252","-216.0"
"1528653740252","-217.0"
"1528653740252","-218.0"
"1528653740252","-219.0"
"1528653740273","-220.0"
"1528653740274","-221.0"
"1528653740274","-222.0"
"1528653740274","-223.0"
"1528653740274","-224.0"
"1528653740274","-225.0"
"1528653740295","-226.0"
"1528653740295","-227.0"
"1528653740295","-228.0"
"1528653740295","-229.0"
"1528653740316","-230.0"
"1528653740316","-231.0"
"1528653740317","-232.0"
"1528653740317","-233.0"
"1528653740317","-234.0"
"1528653740338","-235.0"
"1528653740338","-236.0"
"1528653740338","-237.0"
"1528653740359","-238.0"
"1528653740359","-239.0"
"1528653740359","-240.0"
"1528653740359","-241.0"
"1528653740360","-242.0"
"1528653740360","-243.0"
"1528653740360","-244.0"
"1528653740360","-246.0"
"1528653740360","-247.0"
"1528653740360","-248.0"
"1528653740360","-249.0"
"1528653740360","-250.0"
"1528653740360","-251.0"
"1528653740360","-252.0"
"1528653740381","-253.0"
"1528653740381","-254.0"
"1528653740402","-255.0"
"1528653740402","-256.0"
"1528653740402","-257.0"
"1528653740402","-258.0"
"1528653740402","-259.0"
"1528653740423","-260.0"
"1528653740444","-259.0"
"1528653740444","-258.0"
"1528653740444","-259.0"
"1528653740465","-260.0"
"1528653740466","-259.0"
"1528653740486","-258.0"
"1528653740487","-257.0"
"1528653740487","-256.0"
"1528653740487","-254.0"
"1528653740487","-253.0"
"1528653740508","-251.0"
"1528653740508","-249.0"
"1528653740508","-248.0"
"1528653740509","-246.0"
"1528653740509","-244.0"
"1528653740509","-242.0"
"1528653740509","-240.0"
"1528653740531","-238.0"
"1528653740531","-236.0"
"1528653740531","-235.0"
"1528653740531","-234.0"
"1528653740531","-232.0"
"1528653740531","-231.0"
"1528653740551","-230.0"
"1528653740551","-229.0"
"1528653740552","-228.0"
"1528653740552","-227.0"
"1528653740552","-228.0"
"1528653740572","-230.0"
"1528653740572","-231.0"
"1528653740572","-233.0"
"1528653740572","-235.0"
"1528653740573","-236.0"
"1528653740573","-238.0"
"1528653740630","-241.0"
"1528653740630","-243.0"
"1528653740630","-245.0"
"1528653740651","-248.0"
"1528653740651","-250.0"
"1528653740651","-252.0"
"1528653740651","-254.0"
"1528653740651","-256.0"
"1528653740652","-257.0"
"1528653740652","-258.0"
"1528653740652","-259.0"
"1528653740672","-258.0"
"1528653740673","-257.0"
"1528653740673","-256.0"
"1528653740673","-254.0"
"1528653740673","-252.0"
"1528653740673","-250.0"
"1528653740673","-248.0"
"1528653740693","-245.0"
"1528653740693","-243.0"
"1528653740694","-240.0"
"1528653740714","-237.0"
"1528653740714","-234.0"
"1528653740714","-231.0"
"1528653740714","-227.0"
"1528653740714","-224.0"
"1528653740714","-221.0"
"1528653740735","-217.0"
"1528653740735","-213.0"
"1528653740735","-209.0"
"1528653740735","-205.0"
"1528653740735","-200.0"
"1528653740735","-195.0"
"1528653740735","-190.0"
"1528653740735","-185.0"
"1528653740735","-180.0"
"1528653740736","-175.0"
"1528653740736","-169.0"
"1528653740736","-163.0"
"1528653740757","-158.0"
"1528653740757","-152.0"
"1528653740757","-147.0"
"1528653740757","-141.0"
"1528653740757","-136.0"
"1528653740757","-131.0"
"1528653740757","-126.0"
"1528653740757","-121.0"
"1528653740757","-115.0"
"1528653740758","-110.0"
"1528653740758","-106.0"
"1528653740758","-101.0"
"1528653740758","-96.0"
"1528653740778","-91.0"
"1528653740778","-87.0"
"1528653740778","-82.0"
"1528653740779","-78.0"
"1528653740779","-73.0"
"1528653740799","-69.0"
"1528653740799","-65.0"
"1528653740800","-61.0"
"1528653740800","-56.0"
"1528653740800","-52.0"
"1528653740800","-48.0"
"1528653740821","-44.0"
"1528653740821","-40.0"
"1528653740821","-36.0"
"1528653740821","-32.0"
"1528653740842","-28.0"
"1528653740842","-24.0"
"1528653740842","-20.0"
"1528653740842","-17.0"
"1528653740842","-13.0"
"1528653740842","-10.0"
"1528653740862","-6.0"
"1528653740863","-3.0"
"1528653740863","0.0"
"1528653740863","2.0"
"1528653740863","5.0"
"1528653740863","8.0"
"1528653740863","11.0"
"1528653740863","14.0"
"1528653740863","16.0"
"1528653740884","19.0"
"1528653740884","21.0"
"1528653740885","24.0"
"1528653740885","26.0"
"1528653740885","28.0"
"1528653740885","30.0"
"1528653740885","32.0"
"1528653740905","34.0"
"1528653740905","36.0"
"1528653740905","37.0"
"1528653740906","39.0"
"1528653740906","40.0"
"1528653740926","41.0"
"1528653740926","43.0"
"1528653740927","44.0"
"1528653740927","45.0"
"1528653740927","46.0"
"1528653740927","47.0"
"1528653740927","48.0"
"1528653740948","49.0"
"1528653740948","50.0"
"1528653740948","51.0"
"1528653741015","50.0"
"1528653741015","49.0"
"1528653741035","48.0"
"1528653741057","47.0"
"1528653741058","46.0"
"1528653741058","45.0"
"1528653741078","44.0"
"1528653741078","43.0"
"1528653741078","42.0"
"1528653741078","41.0"
"1528653741079","40.0"
"1528653741079","39.0"
"1528653741079","38.0"
"1528653741079","37.0"
"1528653741079","36.0"
"1528653741079","35.0"
"1528653741079","34.0"
"1528653741100","33.0"
"1528653741100","32.0"
"1528653741100","31.0"
"1528653741100","30.0"
"1528653741125","29.0"
"1528653741147","28.0"
"1528653741147","27.0"
"1528653741147","26.0"
"1528653741147","25.0"
"1528653741147","24.0"
"1528653741148","23.0"
"1528653741148","22.0"
"1528653741148","21.0"
"1528653741148","20.0"
"1528653741148","19.0"
"1528653741148","18.0"
"1528653741168","17.0"
"1528653741169","18.0"
"1528653741169","19.0"
"1528653741169","21.0"
"1528653741169","23.0"
"1528653741169","25.0"
"1528653741169","28.0"
"1528653741170","31.0"
"1528653741190","34.0"
"1528653741191","37.0"
"1528653741191","41.0"
"1528653741212","45.0"
"1528653741212","49.0"
"1528653741212","52.0"
"1528653741212","56.0"
"1528653741212","60.0"
"1528653741213","64.0"
"1528653741213","68.0"
"1528653741213","73.0"
"1528653741233","77.0"
"1528653741233","82.0"
"1528653741233","87.0"
"1528653741234","91.0"
"1528653741234","96.0"
"1528653741234","101.0"
"1528653741234","105.0"
"1528653741234","108.0"
"1528653741234","111.0"
"1528653741234","114.0"
"1528653741255","116.0"
"1528653741255","118.0"
"1528653741276","120.0"
"1528653741276","121.0"
"1528653741276","122.0"
"1528653741276","123.0"
"1528653741298","122.0"
"1528653741319","123.0"
"1528653741340","124.0"
"1528653741360","125.0"
"1528653741381","124.0"
"1528653741381","123.0"
"1528653741382","122.0"
"1528653741382","121.0"
"1528653741382","120.0"
"1528653741402","119.0"
"1528653741403","118.0"
"1528653741403","117.0"
"1528653741403","116.0"
"1528653741403","115.0"
"1528653741423","114.0"
"1528653741424","112.0"
"1528653741424","111.0"
"1528653741424","109.0"
"1528653741424","107.0"
"1528653741424","105.0"
"1528653741424","102.0"
"1528653741424","100.0"
"1528653741424","97.0"
"1528653741424","95.0"
"1528653741424","92.0"
"1528653741424","89.0"
"1528653741445","87.0"
"1528653741445","84.0"
"1528653741445","81.0"
"1528653741445","79.0"
"1528653741445","76.0"
"1528653741445","74.0"
"1528653741445","72.0"
"1528653741466","70.0"
"1528653741466","68.0"
"1528653741466","66.0"
"1528653741467","65.0"
"1528653741467","64.0"
"1528653741467","63.0"
"1528653741467","62.0"
"1528653741468","61.0"
"1528653741509","60.0"
"1528653741530","59.0"
"1528653741530","58.0"
"1528653741531","57.0"
"1528653741531","56.0"
"1528653741531","54.0"
"1528653741531","53.0"
"1528653741531","51.0"
"1528653741531","50.0"
"1528653741531","48.0"
"1528653741552","46.0"
"1528653741552","45.0"
"1528653741552","43.0"
"1528653741572","42.0"
"1528653741573","41.0"
"1528653741573","40.0"
"1528653741593","41.0"
"1528653741614","42.0"
"1528653741614","43.0"
"1528653741614","44.0"
"1528653741614","45.0"
"1528653741614","46.0"
"1528653741614","47.0"
"1528653741635","46.0"
"1528653741635","45.0"
"1528653741683","44.0"
"1528653741683","42.0"
"1528653741683","39.0"
"1528653741683","36.0"
"1528653741704","33.0"
"1528653741704","30.0"
"1528653741704","26.0"
"1528653741704","23.0"
"1528653741704","20.0"
"1528653741725","16.0"
"1528653741725","13.0"
"1528653741725","10.0"
"1528653741725","6.0"
"1528653741726","2.0"
"1528653741726","-2.0"
"1528653741726","-7.0"
"1528653741726","-12.0"
"1528653741726","-17.0"
"1528653741726","-23.0"
"1528653741747","-29.0"
"1528653741747","-34.0"
"1528653741747","-40.0"
"1528653741747","-46.0"
"1528653741747","-52.0"
"1528653741748","-59.0"
"1528653741748","-65.0"
"1528653741748","-71.0"
"1528653741748","-77.0"
"1528653741748","-83.0"
"1528653741748","-88.0"
"1528653741748","-94.0"
"1528653741748","-99.0"
"1528653741748","-104.0"
"1528653741748","-109.0"
"1528653741748","-113.0"
"1528653741748","-118.0"
"1528653741748","-122.0"
"1528653741769","-126.0"
"1528653741769","-130.0"
"1528653741770","-134.0"
"1528653741770","-138.0"
"1528653741770","-142.0"
"1528653741770","-145.0"
"1528653741770","-148.0"
"1528653741791","-151.0"
"1528653741791","-155.0"
"1528653741791","-159.0"
"1528653741791","-162.0"
"1528653741791","-166.0"
"1528653741792","-170.0"
"1528653741792","-175.0"
"1528653741792","-179.0"
"1528653741792","-183.0"
"1528653741813","-187.0"
"1528653741813","-192.0"
"1528653741813","-196.0"
"1528653741813","-199.0"
"1528653741813","-203.0"
"1528653741813","-206.0"
"1528653741813","-209.0"
"1528653741813","-212.0"
"1528653741814","-215.0"
"1528653741834","-218.0"
"1528653741834","-221.0"
"1528653741835","-224.0"
"1528653741835","-227.0"
"1528653741835","-230.0"
"1528653741835","-233.0"
"1528653741856","-236.0"
"1528653741856","-238.0"
"1528653741856","-242.0"
"1528653741856","-245.0"
"1528653741856","-248.0"
"1528653741877","-252.0"
"1528653741877","-255.0"
"1528653741879","-259.0"
"1528653741899","-263.0"
"1528653741900","-267.0"
"1528653741900","-271.0"
"1528653741900","-275.0"
"1528653741900","-280.0"
"1528653741900","-285.0"
"1528653741900","-291.0"
"1528653741900","-297.0"
"1528653741900","-304.0"
"1528653741900","-311.0"
"1528653741900","-320.0"
"1528653741901","-328.0"
"1528653741921","-338.0"
"1528653741921","-348.0"
"1528653741922","-358.0"
"1528653741922","-369.0"
"1528653741922","-381.0"
"1528653741922","-394.0"
"1528653741922","-407.0"
"1528653741944","-421.0"
"1528653741944","-435.0"
"1528653741944","-450.0"
"1528653741944","-465.0"
"1528653741944","-480.0"
"1528653741945","-495.0"
"1528653741965","-510.0"
"1528653741966","-525.0"
"1528653741966","-539.0"
"1528653741966","-553.0"
"1528653741966","-566.0"
"1528653741966","-579.0"
"1528653741966","-591.0"
"1528653741966","-602.0"
"1528653741966","-612.0"
"1528653741987","-622.0"
"1528653741987","-631.0"
"1528653741987","-639.0"
"1528653741987","-646.0"
"1528653741987","-653.0"
"1528653741987","-658.0"
"1528653742008","-663.0"
"1528653742008","-667.0"
"1528653742008","-670.0"
"1528653742029","-672.0"
"1528653742029","-673.0"
"1528653742029","-671.0"
"1528653742029","-669.0"
"1528653742030","-665.0"
"1528653742030","-661.0"
"1528653742030","-657.0"
"1528653742030","-651.0"
"1528653742050","-645.0"
"1528653742051","-639.0"
"1528653742051","-632.0"
"1528653742051","-624.0"
"1528653742051","-616.0"
"1528653742051","-608.0"
"1528653742051","-600.0"
"1528653742051","-591.0"
"1528653742071","-583.0"
"1528653742072","-574.0"
"1528653742072","-565.0"
"1528653742072","-556.0"
"1528653742072","-547.0"
"1528653742072","-538.0"
"1528653742073","-530.0"
"1528653742093","-521.0"
"1528653742094","-513.0"
"1528653742094","-504.0"
"1528653742094","-496.0"
"1528653742094","-487.0"
"1528653742094","-479.0"
"1528653742115","-472.0"
"1528653742115","-464.0"
"1528653742115","-457.0"
"1528653742115","-450.0"
"1528653742115","-444.0"
"1528653742116","-438.0"
"1528653742136","-432.0"
"1528653742137","-427.0"
"1528653742137","-421.0"
"1528653742137","-416.0"
"1528653742137","-411.0"
"1528653742137","-407.0"
"1528653742158","-403.0"
"1528653742158","-400.0"
"1528653742158","-398.0"
"1528653742158","-399.0"
"1528653742158","-401.0"
"1528653742158","-406.0"
"1528653742179","-413.0"
"1528653742179","-423.0"
"1528653742179","-436.0"
"1528653742180","-450.0"
"1528653742180","-466.0"
"1528653742180","-483.0"
"1528653742180","-501.0"
"1528653742180","-519.0"
"1528653742180","-538.0"
"1528653742180","-556.0"
"1528653742201","-575.0"
"1528653742201","-593.0"
"1528653742201","-611.0"
"1528653742201","-628.0"
"1528653742201","-645.0"
"1528653742222","-661.0"
"1528653742222","-676.0"
"1528653742222","-692.0"
"1528653742222","-706.0"
"1528653742222","-721.0"
"1528653742222","-734.0"
"1528653742222","-747.0"
"1528653742243","-759.0"
"1528653742243","-771.0"
"1528653742243","-781.0"
"1528653742264","-791.0"
"1528653742264","-799.0"
"1528653742264","-808.0"
"1528653742265","-815.0"
"1528653742265","-823.0"
"1528653742265","-832.0"
"1528653742265","-841.0"
"1528653742265","-851.0"
"1528653742265","-861.0"
"1528653742286","-872.0"
"1528653742286","-882.0"
"1528653742286","-893.0"
"1528653742286","-903.0"
"1528653742286","-912.0"
"1528653742286","-920.0"
"1528653742307","-928.0"
"1528653742307","-934.0"
"1528653742307","-939.0"
"1528653742307","-943.0"
"1528653742308","-946.0"
"1528653742308","-948.0"
"1528653742328","-947.0"
"1528653742328","-945.0"
"1528653742329","-942.0"
"1528653742329","-938.0"
"1528653742329","-932.0"
"1528653742349","-926.0"
"1528653742350","-919.0"
"1528653742350","-911.0"
"1528653742350","-902.0"
"1528653742350","-892.0"
"1528653742350","-882.0"
"1528653742370","-870.0"
"1528653742371","-859.0"
"1528653742371","-846.0"
"1528653742371","-834.0"
"1528653742371","-820.0"
"1528653742371","-806.0"
"1528653742392","-792.0"
"1528653742392","-778.0"
"1528653742392","-763.0"
"1528653742392","-748.0"
"1528653742392","-733.0"
"1528653742392","-717.0"
"1528653742413","-702.0"
"1528653742413","-686.0"
"1528653742413","-670.0"
"1528653742413","-654.0"
"1528653742413","-638.0"
"1528653742413","-623.0"
"1528653742413","-607.0"
"1528653742414","-591.0"
"1528653742414","-575.0"
"1528653742434","-560.0"
"1528653742434","-544.0"
"1528653742435","-529.0"
"1528653742456","-513.0"
"1528653742456","-498.0"
"1528653742456","-483.0"
"1528653742456","-469.0"
"1528653742456","-454.0"
"1528653742456","-440.0"
"1528653742457","-425.0"
"1528653742457","-411.0"
"1528653742457","-398.0"
"1528653742457","-384.0"
"1528653742480","-371.0"
"1528653742480","-358.0"
"1528653742481","-345.0"
"1528653742501","-333.0"
"1528653742502","-321.0"
"1528653742502","-309.0"
"1528653742523","-297.0"
"1528653742523","-285.0"
"1528653742524","-274.0"
"1528653742524","-263.0"
"1528653742524","-253.0"
"1528653742524","-242.0"
"1528653742545","-232.0"
"1528653742545","-223.0"
"1528653742545","-213.0"
"1528653742565","-204.0"
"1528653742566","-195.0"
"1528653742566","-186.0"
"1528653742566","-178.0"
"1528653742566","-170.0"
"1528653742566","-162.0"
"1528653742567","-154.0"
"1528653742567","-147.0"
"1528653742567","-140.0"
"1528653742567","-133.0"
"1528653742567","-126.0"
"1528653742567","-120.0"
"1528653742588","-114.0"
"1528653742588","-108.0"
"1528653742588","-102.0"
"1528653742609","-97.0"
"1528653742609","-91.0"
"1528653742609","-86.0"
"1528653742630","-81.0"
"1528653742630","-77.0"
"1528653742630","-72.0"
"1528653742630","-68.0"
"1528653742630","-64.0"
"1528653742631","-60.0"
"1528653742631","-56.0"
"1528653742631","-53.0"
"1528653742631","-49.0"
"1528653742631","-46.0"
"1528653742632","-43.0"
"1528653742632","-40.0"
"1528653742632","-37.0"
"1528653742632","-35.0"
"1528653742632","-32.0"
"1528653742653","-30.0"
"1528653742653","-28.0"
"1528653742653","-25.0"
"1528653742654","-23.0"
"1528653742654","-21.0"
"1528653742654","-19.0"
"1528653742654","-18.0"
"1528653742675","-16.0"
"1528653742675","-14.0"
"1528653742675","-12.0"
"1528653742711","-11.0"
"1528653742712","-9.0"
"1528653742732","-7.0"
"1528653742732","-6.0"
"1528653742732","-4.0"
"1528653742733","-2.0"
"1528653742753","0.0"
"1528653742753","4.0"
"1528653742753","10.0"
"1528653742753","19.0"
"1528653742753","33.0"
"1528653742753","53.0"
"1528653742754","78.0"
"1528653742754","109.0"
"1528653742754","148.0"
"1528653742754","194.0"
"1528653742754","246.0"
"1528653742754","305.0"
"1528653742775","372.0"
"1528653742775","446.0"
"1528653742775","509.0"
"1528653742775","510.0"
"1528653742775","511.0"
"1528653742775","512.0"
"1528653742775","513.0"
"1528653742775","515.0"
"1528653742776","517.0"
"1528653742776","519.0"
"1528653742776","522.0"
"1528653742776","524.0"
"1528653742801","527.0"
"1528653742802","530.0"
"1528653742802","533.0"
"1528653742822","537.0"
"1528653742823","541.0"
"1528653742823","545.0"
"1528653742823","549.0"
"1528653742823","553.0"
"1528653742823","557.0"
"1528653742844","562.0"
"1528653742844","567.0"
"1528653742844","571.0"
"1528653742844","576.0"
"1528653742844","581.0"
"1528653742844","586.0"
"1528653742844","592.0"
"1528653742844","597.0"
"1528653742844","602.0"
"1528653742844","607.0"
"1528653742844","612.0"
"1528653742844","618.0"
"1528653742845","623.0"
"1528653742845","628.0"
"1528653742845","633.0"
"1528653742845","638.0"
"1528653742865","643.0"
"1528653742865","648.0"
"1528653742866","653.0"
"1528653742866","658.0"
"1528653742866","663.0"
"1528653742866","668.0"
"1528653742866","673.0"
"1528653742866","677.0"
"1528653742866","682.0"
"1528653742887","686.0"
"1528653742887","690.0"
"1528653742908","695.0"
"1528653742908","699.0"
"1528653742908","703.0"
"1528653742908","707.0"
"1528653742908","711.0"
"1528653742909","714.0"
"1528653742909","718.0"
"1528653742909","721.0"
"1528653742909","725.0"
"1528653742909","728.0"
"1528653742930","731.0"
"1528653742930","734.0"
"1528653742930","737.0"
"1528653742930","740.0"
"1528653742930","743.0"
"1528653742930","746.0"
"1528653742930","748.0"
"1528653742931","750.0"
"1528653742951","753.0"
"1528653742951","755.0"
"1528653742951","757.0"
"1528653742951","759.0"
"1528653742972","761.0"
"1528653742972","763.0"
"1528653742972","765.0"
"1528653742972","766.0"
"1528653742973","768.0"
"1528653742973","769.0"
"1528653742993","771.0"
"1528653742993","772.0"
"1528653742994","773.0"
"1528653742994","774.0"
"1528653742994","775.0"
"1528653743014","739.0"
"1528653743015","704.0"
"1528653743015","670.0"
"1528653743015","637.0"
"1528653743015","605.0"
"1528653743015","573.0"
"1528653743036","543.0"
"1528653743036","514.0"
"1528653743036","485.0"
"1528653743036","457.0"
"1528653743036","431.0"
"1528653743036","405.0"
"1528653743036","380.0"
"1528653743036","356.0"
"1528653743036","333.0"
"1528653743036","310.0"
"1528653743057","289.0"
"1528653743057","268.0"
"1528653743077","248.0"
"1528653743078","229.0"
"1528653743078","211.0"
"1528653743078","193.0"
"1528653743078","176.0"
"1528653743078","160.0"
"1528653743078","145.0"
"1528653743078","130.0"
"1528653743078","116.0"
"1528653743078","103.0"
"1528653743099","90.0"
"1528653743099","78.0"
"1528653743099","66.0"
"1528653743099","55.0"
"1528653743099","45.0"
"1528653743099","35.0"
"1528653743120","26.0"
"1528653743120","17.0"
"1528653743120","9.0"
"1528653743120","0.0"
"1528653743121","-9.0"
"1528653743141","-21.0"
"1528653743141","-34.0"
"1528653743142","-51.0"
"1528653743142","-70.0"
"1528653743142","-92.0"
"1528653743142","-117.0"
"1528653743142","-145.0"
"1528653743162","-177.0"
"1528653743162","-211.0"
"1528653743163","-249.0"
"1528653743163","-290.0"
"1528653743163","-334.0"
"1528653743163","-381.0"
"1528653743163","-429.0"
"1528653743163","-476.0"
"1528653743184","-520.0"
"1528653743184","-560.0"
"1528653743184","-595.0"
"1528653743184","-623.0"
"1528653743184","-643.0"
"1528653743184","-657.0"
"1528653743184","-662.0"
"1528653743205","-659.0"
"1528653743205","-648.0"
"1528653743205","-630.0"
"1528653743205","-605.0"
"1528653743205","-575.0"
"1528653743226","-541.0"
"1528653743226","-505.0"
"1528653743226","-468.0"
"1528653743226","-430.0"
"1528653743247","-393.0"
"1528653743247","-357.0"
"1528653743247","-321.0"
"1528653743247","-287.0"
"1528653743247","-254.0"
"1528653743247","-223.0"
"1528653743247","-192.0"
"1528653743247","-164.0"
"1528653743247","-136.0"
"1528653743268","-110.0"
"1528653743268","-85.0"
"1528653743268","-62.0"
"1528653743269","-40.0"
"1528653743269","-19.0"
"1528653743269","0.0"
"1528653743290","18.0"
"1528653743290","35.0"
"1528653743291","51.0"
"1528653743291","67.0"
"1528653743291","81.0"
"1528653743291","94.0"
"1528653743291","106.0"
"1528653743312","117.0"
"1528653743312","127.0"
"1528653743313","137.0"
"1528653743313","146.0"
"1528653743313","152.0"
"1528653743313","156.0"
"1528653743334","155.0"
"1528653743334","149.0"
"1528653743334","140.0"
"1528653743335","126.0"
"1528653743335","109.0"
"1528653743335","89.0"
"1528653743355","66.0"
"1528653743356","41.0"
"1528653743356","14.0"
"1528653743356","-14.0"
"1528653743356","-44.0"
"1528653743356","-76.0"
"1528653743376","-108.0"
"1528653743377","-141.0"
"1528653743377","-172.0"
"1528653743377","-200.0"
"1528653743377","-225.0"
"1528653743377","-247.0"
"1528653743399","-264.0"
"1528653743399","-276.0"
"1528653743399","-284.0"
"1528653743399","-288.0"
"1528653743399","-286.0"
"1528653743399","-281.0"
"1528653743399","-272.0"
"1528653743399","-260.0"
"1528653743400","-247.0"
"1528653743420","-231.0"
"1528653743420","-215.0"
"1528653743420","-199.0"
"1528653743420","-183.0"
"1528653743420","-167.0"
"1528653743420","-152.0"
"1528653743441","-138.0"
"1528653743441","-125.0"
"1528653743441","-112.0"
"1528653743441","-101.0"
"1528653743442","-90.0"
"1528653743442","-80.0"
"1528653743442","-73.0"
"1528653743463","-66.0"
"1528653743463","-62.0"
"1528653743463","-59.0"
"1528653743463","-60.0"
"1528653743463","-64.0"
"1528653743484","-71.0"
"1528653743484","-81.0"
"1528653743485","-94.0"
"1528653743485","-110.0"
"1528653743485","-130.0"
"1528653743487","-154.0"
"1528653743507","-182.0"
"1528653743507","-215.0"
"1528653743507","-255.0"
"1528653743507","-302.0"
"1528653743507","-357.0"
"1528653743507","-418.0"
"1528653743507","-484.0"
"1528653743528","-555.0"
"1528653743528","-629.0"
"1528653743528","-704.0"
"1528653743528","-780.0"
"1528653743528","-856.0"
"1528653743528","-933.0"
"1528653743549","-1015.0"
"1528653743549","-1101.0"
"1528653743549","-1191.0"
"1528653743549","-1283.0"
"1528653743550","-1382.0"
"1528653743570","-1486.0"
"1528653743573","-1591.0"
"1528653743573","-1691.0"
"1528653743594","-1785.0"
"1528653743594","-1872.0"
"1528653743594","-1953.0"
"1528653743594","-2026.0"
"1528653743594","-2092.0"
"1528653743594","-2151.0"
"1528653743594","-2203.0"
"1528653743594","-2249.0"
"1528653743594","-2289.0"
"1528653743594","-2323.0"
"1528653743594","-2352.0"
"1528653743594","-2374.0"
"1528653743681","-2392.0"
"1528653743681","-2405.0"
"1528653743681","-2413.0"
"1528653743681","-2417.0"
"1528653743702","-2413.0"
"1528653743702","-2405.0"
"1528653743702","-2394.0"
"1528653743702","-2380.0"
"1528653743702","-2362.0"
"1528653743723","-2342.0"
"1528653743723","-2319.0"
"1528653743723","-2294.0"
"1528653743723","-2266.0"
"1528653743723","-2237.0"
"1528653743723","-2205.0"
"1528653743724","-2172.0"
"1528653743724","-2137.0"
"1528653743724","-2101.0"
"1528653743724","-2064.0"
"1528653743724","-2025.0"
"1528653743724","-1986.0"
"1528653743744","-1946.0"
"1528653743745","-1904.0"
"1528653743745","-1863.0"
"1528653743745","-1820.0"
"1528653743745","-1777.0"
"1528653743745","-1734.0"
"1528653743745","-1691.0"
"1528653743745","-1648.0"
"1528653743745","-1604.0"
"1528653743745","-1560.0"
"1528653743745","-1517.0"
"1528653743745","-1473.0"
"1528653743745","-1430.0"
"1528653743745","-1387.0"
"1528653743746","-1345.0"
"1528653743746","-1303.0"
"1528653743746","-1261.0"
"1528653743746","-1219.0"
"1528653743746","-1178.0"
"1528653743746","-1138.0"
"1528653743746","-1098.0"
"1528653743746","-1059.0"
"1528653743767","-1021.0"
"1528653743767","-983.0"
"1528653743767","-946.0"
"1528653743767","-909.0"
"1528653743767","-873.0"
"1528653743767","-838.0"
"1528653743767","-804.0"
"1528653743767","-770.0"
"1528653743788","-738.0"
"1528653743788","-706.0"
"1528653743788","-675.0"
"1528653743788","-644.0"
"1528653743789","-614.0"
"1528653743789","-586.0"
"1528653743809","-558.0"
"1528653743809","-530.0"
"1528653743809","-504.0"
"1528653743809","-478.0"
"1528653743809","-454.0"
"1528653743809","-430.0"
"1528653743830","-406.0"
"1528653743830","-384.0"
"1528653743830","-362.0"
"1528653743831","-341.0"
"1528653743831","-321.0"
"1528653743831","-301.0"
"1528653743831","-282.0"
"1528653743852","-264.0"
"1528653743852","-247.0"
"1528653743852","-230.0"
"1528653743852","-214.0"
"1528653743852","-198.0"
"1528653743852","-184.0"
"1528653743873","-169.0"
"1528653743873","-156.0"
"1528653743873","-143.0"
"1528653743874","-130.0"
"1528653743874","-119.0"
"1528653743874","-107.0"
"1528653743874","-96.0"
"1528653743894","-86.0"
"1528653743894","-77.0"
"1528653743895","-67.0"
"1528653743895","-59.0"
"1528653743895","-50.0"
"1528653743895","-43.0"
"1528653743915","-35.0"
"1528653743915","-28.0"
"1528653743936","-21.0"
"1528653743936","-15.0"
"1528653743936","-9.0"
"1528653743936","-3.0"
"1528653743936","1.0"
"1528653743936","6.0"
"1528653743936","11.0"
"1528653743936","16.0"
"1528653743936","20.0"
"1528653743937","24.0"
"1528653743957","28.0"
"1528653743958","32.0"
"1528653743958","37.0"
"1528653743979","41.0"
"1528653743979","47.0"
"1528653743979","55.0"
"1528653743979","64.0"
"1528653743979","76.0"
"1528653743979","92.0"
"1528653743979","111.0"
"1528653743979","137.0"
"1528653743979","168.0"
"1528653743980","205.0"
"1528653743980","247.0"
"1528653744000","292.0"
"1528653744000","341.0"
"1528653744000","393.0"
"1528653744000","445.0"
"1528653744000","499.0"
"1528653744001","554.0"
"1528653744021","610.0"
"1528653744021","669.0"
"1528653744021","729.0"
"1528653744022","792.0"
"1528653744022","855.0"
"1528653744022","919.0"
"1528653744042","953.0"
"1528653744042","954.0"
"1528653744042","956.0"
"1528653744042","958.0"
"1528653744043","959.0"
"1528653744043","961.0"
"1528653744043","964.0"
"1528653744063","966.0"
"1528653744063","968.0"
"1528653744063","971.0"
"1528653744063","973.0"
"1528653744063","976.0"
"1528653744084","978.0"
"1528653744085","981.0"
"1528653744085","984.0"
"1528653744085","986.0"
"1528653744085","989.0"
"1528653744085","992.0"
"1528653744086","994.0"
"1528653744106","996.0"
"1528653744106","998.0"
"1528653744107","999.0"
"1528653744107","1001.0"
"1528653744107","937.0"
"1528653744107","827.0"
"1528653744107","721.0"
"1528653744127","620.0"
"1528653744128","523.0"
"1528653744128","430.0"
"1528653744128","342.0"
"1528653744128","258.0"
"1528653744128","178.0"
"1528653744149","102.0"
"1528653744149","31.0"
"1528653744149","-36.0"
"1528653744149","-100.0"
"1528653744149","-160.0"
"1528653744149","-216.0"
"1528653744170","-269.0"
"1528653744170","-319.0"
"1528653744170","-365.0"
"1528653744170","-407.0"
"1528653744170","-447.0"
"1528653744170","-484.0"
"1528653744191","-518.0"
"1528653744191","-549.0"
"1528653744191","-577.0"
"1528653744191","-603.0"
"1528653744191","-627.0"
"1528653744191","-648.0"
"1528653744212","-667.0"
"1528653744212","-683.0"
"1528653744212","-698.0"
"1528653744212","-711.0"
"1528653744212","-722.0"
"1528653744212","-731.0"
"1528653744233","-738.0"
"1528653744233","-744.0"
"1528653744233","-748.0"
"1528653744233","-751.0"
"1528653744233","-752.0"
"1528653744254","-751.0"
"1528653744254","-749.0"
"1528653744254","-746.0"
"1528653744254","-742.0"
"1528653744255","-737.0"
"1528653744255","-731.0"
"1528653744275","-724.0"
"1528653744275","-716.0"
"1528653744275","-708.0"
"1528653744276","-699.0"
"1528653744276","-690.0"
"1528653744276","-680.0"
"1528653744308","-669.0"
"1528653744308","-659.0"
"1528653744308","-647.0"
"1528653744308","-636.0"
"1528653744329","-624.0"
"1528653744329","-611.0"
"1528653744329","-599.0"
"1528653744329","-586.0"
"1528653744329","-574.0"
"1528653744329","-561.0"
"1528653744330","-548.0"
"1528653744330","-534.0"
"1528653744330","-521.0"
"1528653744330","-508.0"
"1528653744330","-495.0"
"1528653744330","-481.0"
"1528653744330","-468.0"
"1528653744330","-455.0"
"1528653744351","-442.0"
"1528653744351","-429.0"
"1528653744351","-416.0"
"1528653744351","-403.0"
"1528653744351","-391.0"
"1528653744351","-378.0"
"1528653744372","-366.0"
"1528653744372","-354.0"
"1528653744372","-342.0"
"1528653744372","-330.0"
"1528653744373","-318.0"
"1528653744373","-307.0"
"1528653744393","-295.0"
"1528653744393","-284.0"
"1528653744393","-274.0"
"1528653744393","-263.0"
"1528653744394","-253.0"
"1528653744394","-242.0"
"1528653744394","-233.0"
"1528653744414","-221.0"
"1528653744414","-204.0"
"1528653744414","-176.0"
"1528653744415","-131.0"
"1528653744415","-62.0"
"1528653744415","31.0"
"1528653744415","151.0"
"1528653744415","295.0"
"1528653744415","456.0"
"1528653744436","626.0"
"1528653744436","796.0"
"1528653744436","959.0"
"1528653744436","1020.0"
"1528653744436","1022.0"
"1528653744436","1024.0"
"1528653744457","1026.0"
"1528653744457","1029.0"
"1528653744457","1031.0"
"1528653744457","1033.0"
"1528653744458","1036.0"
"1528653744458","1038.0"
"1528653744478","1041.0"
"1528653744478","1043.0"
"1528653744479","1046.0"
"1528653744479","1048.0"
"1528653744479","1051.0"
"1528653744479","1054.0"
"1528653744500","1056.0"
"1528653744500","1059.0"
"1528653744500","1061.0"
"1528653744500","1064.0"
"1528653744501","1066.0"
"1528653744501","1068.0"
"1528653744527","1070.0"
"1528653744528","1072.0"
"1528653744528","1074.0"
"1528653744528","1075.0"
"1528653744528","1011.0"
"1528653744528","921.0"
"1528653744549","835.0"
"1528653744549","753.0"
"1528653744549","674.0"
"1528653744549","601.0"
"1528653744550","536.0"
"1528653744550","481.0"
"1528653744550","437.0"
"1528653744550","409.0"
"1528653744550","404.0"
"1528653744587","430.0"
"1528653744587","485.0"
"1528653744587","563.0"
"1528653744587","656.0"
"1528653744608","757.0"
"1528653744608","861.0"
"1528653744608","965.0"
"1528653744633","1067.0"
"1528653744633","1086.0"
"1528653744633","1088.0"
"1528653744653","1090.0"
"1528653744654","1092.0"
"1528653744654","1094.0"
"1528653744654","1097.0"
"1528653744654","1099.0"
"1528653744654","1102.0"
"1528653744654","1104.0"
"1528653744654","1107.0"
"1528653744675","1110.0"
"1528653744675","1113.0"
"1528653744675","1116.0"
"1528653744696","1119.0"
"1528653744696","1122.0"
"1528653744696","1125.0"
"1528653744696","1128.0"
"1528653744696","1131.0"
"1528653744696","1135.0"
"1528653744717","1138.0"
"1528653744717","1141.0"
"1528653744717","1144.0"
"1528653744718","1147.0"
"1528653744718","1150.0"
"1528653744718","1153.0"
"1528653744718","1156.0"
"1528653744718","1159.0"
"1528653744719","1162.0"
"1528653744719","1165.0"
"1528653744739","1167.0"
"1528653744740","1170.0"
"1528653744740","1173.0"
"1528653744740","1175.0"
"1528653744740","1178.0"
"1528653744740","1180.0"
"1528653744740","1183.0"
"1528653744740","1185.0"
"1528653744740","1187.0"
"1528653744740","1190.0"
"1528653744740","1192.0"
"1528653744741","1194.0"
"1528653744741","1196.0"
"1528653744741","1198.0"
"1528653744741","1199.0"
"1528653744741","1201.0"
"1528653744762","1203.0"
"1528653744763","1204.0"
"1528653744763","1200.0"
"1528653744763","1164.0"
"1528653744763","1129.0"
"1528653744763","1093.0"
"1528653744763","1058.0"
"1528653744763","1023.0"
"1528653744763","989.0"
"1528653744763","955.0"
"1528653744764","922.0"
"1528653744764","889.0"
"1528653744784","856.0"
"1528653744785","824.0"
"1528653744785","792.0"
"1528653744785","761.0"
"1528653744785","731.0"
"1528653744785","701.0"
"1528653744805","672.0"
"1528653744806","644.0"
"1528653744806","616.0"
"1528653744826","589.0"
"1528653744826","562.0"
"1528653744827","536.0"
"1528653744827","511.0"
"1528653744827","487.0"
"1528653744827","463.0"
"1528653744827","439.0"
"1528653744827","417.0"
"1528653744827","395.0"
"1528653744847","374.0"
"1528653744848","353.0"
"1528653744868","333.0"
"1528653744868","314.0"
"1528653744868","295.0"
"1528653744868","277.0"
"1528653744868","260.0"
"1528653744868","243.0"
"1528653744869","227.0"
"1528653744869","212.0"
"1528653744869","197.0"
"1528653744869","182.0"
"1528653744890","168.0"
"1528653744890","155.0"
"1528653744890","142.0"
"1528653744890","130.0"
"1528653744890","118.0"
"1528653744890","107.0"
"1528653744911","97.0"
"1528653744911","86.0"
"1528653744911","77.0"
"1528653744911","68.0"
"1528653744911","59.0"
"1528653744911","50.0"
"1528653744932","42.0"
"1528653744932","35.0"
"1528653744932","28.0"
"1528653744932","21.0"
"1528653744932","15.0"
"1528653744932","9.0"
"1528653744953","3.0"
"1528653744953","-1.0"
"1528653744953","-6.0"
"1528653744954","-11.0"
"1528653744954","-15.0"
"1528653744954","-19.0"
"1528653744974","-23.0"
"1528653744974","-27.0"
"1528653744974","-30.0"
"1528653744975","-33.0"
"1528653744975","-36.0"
"1528653744975","-38.0"
"1528653744995","-41.0"
"1528653744995","-43.0"
"1528653744996","-45.0"
"1528653744996","-46.0"
"1528653745017","-48.0"
"1528653745017","-49.0"
"1528653745017","-50.0"
"1528653745018","-51.0"
"1528653745018","-52.0"
"1528653745018","-53.0"
"1528653745018","-54.0"
"1528653745039","-55.0"
"1528653745039","-54.0"
"1528653745039","-53.0"
"1528653745060","-52.0"
"1528653745060","-51.0"
"1528653745060","-50.0"
"1528653745061","-49.0"
"1528653745081","-48.0"
"1528653745081","-47.0"
"1528653745081","-46.0"
"1528653745081","-45.0"
"1528653745081","-44.0"
"1528653745102","-43.0"
"1528653745102","-42.0"
"1528653745102","-41.0"
"1528653745102","-40.0"
"1528653745102","-39.0"
"1528653745103","-38.0"
"1528653745123","-37.0"
"1528653745123","-36.0"
"1528653745123","-35.0"
"1528653745123","-34.0"
"1528653745124","-33.0"
"1528653745124","-32.0"
"1528653745144","-31.0"
"1528653745144","-30.0"
"1528653745145","-29.0"
"1528653745145","-28.0"
"1528653745145","-27.0"
"1528653745145","-26.0"
"1528653745165","-25.0"
"1528653745166","-24.0"
"1528653745166","-23.0"
"1528653745187","-22.0"
"1528653745187","-21.0"
"1528653745187","-20.0"
"1528653745187","-19.0"
"1528653745187","-18.0"
"1528653745187","-17.0"
"1528653745187","-16.0"
"1528653745208","-15.0"
"1528653745208","-14.0"
"1528653745208","-13.0"
"1528653745208","-12.0"
"1528653745209","-11.0"
"1528653745209","-10.0"
"1528653745229","-9.0"
"1528653745230","-8.0"
"1528653745250","-7.0"
"1528653745251","-6.0"
"1528653745251","-5.0"
"1528653745251","-4.0"
"1528653745272","-3.0"
"1528653745272","-2.0"
"1528653745293","-1.0"
"1528653745293","0.0"
"1528653745355","1.0"
"1528653745501","0.0"
"1528653745736","-1.0"
"1528653745736","-2.0"
"1528653745736","-3.0"
"1528653745757","-4.0"
"1528653745758","-5.0"
"1528653745758","-6.0"
"1528653745758","-7.0"
"1528653745779","-8.0"
"1528653745780","-9.0"
"1528653745780","-10.0"
"1528653745780","-11.0"
"1528653745780","-12.0"
"1528653745801","-11.0"
"1528653745802","-10.0"
"1528653745802","-9.0"
"1528653745823","-8.0"
"1528653745823","-7.0"
"1528653745823","-6.0"
"1528653745823","-5.0"
"1528653745823","-4.0"
"1528653745844","-3.0"
"1528653745864","-4.0"
"1528653745865","-5.0"
"1528653745865","-6.0"
"1528653745865","-7.0"
"1528653745885","-8.0"
"1528653745886","-9.0"
"1528653745886","-10.0"
"1528653745886","-12.0"
"1528653745886","-13.0"
"1528653745886","-14.0"
"1528653745906","-15.0"
"1528653745907","-17.0"
"1528653745907","-18.0"
"1528653745907","-19.0"
"1528653745927","-20.0"
"1528653745928","-21.0"
"1528653745928","-23.0"
"1528653745928","-24.0"
"1528653745928","-25.0"
"1528653745928","-27.0"
"1528653745929","-28.0"
"1528653745929","-29.0"
"1528653745929","-30.0"
"1528653745929","-32.0"
"1528653745950","-33.0"
"1528653745950","-34.0"
"1528653745971","-36.0"
"1528653745971","-37.0"
"1528653745971","-38.0"
"1528653745971","-39.0"
"1528653745971","-40.0"
"1528653745971","-41.0"
"1528653745972","-42.0"
"1528653745972","-43.0"
"1528653745992","-42.0"
"1528653745993","-41.0"
"1528653745993","-40.0"
"1528653745993","-38.0"
"1528653746013","-36.0"
"1528653746014","-34.0"
"1528653746014","-31.0"
"1528653746014","-28.0"
"1528653746014","-24.0"
"1528653746014","-21.0"
"1528653746035","-17.0"
"1528653746035","-14.0"
"1528653746035","-10.0"
"1528653746035","-7.0"
"1528653746035","-4.0"
"1528653746035","-1.0"
"1528653746056","1.0"
"1528653746056","4.0"
"1528653746056","6.0"
"1528653746056","8.0"
"1528653746057","11.0"
"1528653746057","13.0"
"1528653746057","15.0"
"1528653746078","16.0"
"1528653746078","18.0"
"1528653746078","20.0"
"1528653746078","21.0"
"1528653746078","22.0"
"1528653746099","23.0"
"1528653746099","24.0"
"1528653746099","25.0"
"1528653746099","26.0"
"1528653746120","27.0"
"1528653746120","28.0"
"1528653746120","29.0"
"1528653746142","30.0"
"1528653746163","29.0"
"1528653746163","28.0"
"1528653746184","27.0"
"1528653746184","26.0"
"1528653746184","25.0"
"1528653746184","24.0"
"1528653746184","23.0"
"1528653746205","22.0"
"1528653746205","21.0"
"1528653746226","20.0"
"1528653746226","19.0"
"1528653746226","18.0"
"1528653746246","17.0"
"1528653746247","16.0"
"1528653746267","15.0"
"1528653746268","14.0"
"1528653746303","13.0"
"1528653746323","12.0"
"1528653746324","11.0"
"1528653746344","10.0"
"1528653746345","9.0"
"1528653746345","8.0"
"1528653746345","7.0"
"1528653746345","6.0"
"1528653746345","5.0"
"1528653746345","4.0"
"1528653746366","3.0"
"1528653746367","2.0"
"1528653746388","1.0"
"1528653746388","0.0"
"1528653747158","-1.0"
"1528653747158","-2.0"
"1528653747158","-3.0"
"1528653747158","-4.0"
"1528653747158","-5.0"
"1528653747179","-6.0"
"1528653747180","-8.0"
"1528653747180","-10.0"
"1528653747180","-12.0"
"1528653747180","-15.0"
"1528653747200","-17.0"
"1528653747200","-20.0"
"1528653747200","-23.0"
"1528653747200","-26.0"
"1528653747201","-30.0"
"1528653747201","-34.0"
"1528653747201","-37.0"
"1528653747201","-41.0"
"1528653747201","-45.0"
"1528653747222","-49.0"
"1528653747222","-53.0"
"1528653747222","-57.0"
"1528653747222","-61.0"
"1528653747222","-65.0"
"1528653747223","-69.0"
"1528653747223","-72.0"
"1528653747243","-75.0"
"1528653747244","-78.0"
"1528653747244","-81.0"
"1528653747244","-84.0"
"1528653747244","-86.0"
"1528653747245","-88.0"
"1528653747266","-89.0"
"1528653747266","-91.0"
"1528653747266","-92.0"
"1528653747266","-93.0"
"1528653747266","-94.0"
"1528653747287","-93.0"
"1528653747287","-92.0"
"1528653747307","-91.0"
"1528653747308","-90.0"
"1528653747308","-88.0"
"1528653747308","-86.0"
"1528653747308","-85.0"
"1528653747308","-82.0"
"1528653747329","-80.0"
"1528653747329","-77.0"
"1528653747329","-74.0"
"1528653747329","-71.0"
"1528653747329","-68.0"
"1528653747350","-64.0"
"1528653747350","-60.0"
"1528653747350","-56.0"
"1528653747350","-52.0"
"1528653747350","-47.0"
"1528653747350","-43.0"
"1528653747350","-38.0"
"1528653747371","-33.0"
"1528653747371","-28.0"
"1528653747372","-22.0"
"1528653747372","-16.0"
"1528653747372","-11.0"
"1528653747372","-5.0"
"1528653747393","0.0"
"1528653747393","6.0"
"1528653747393","12.0"
"1528653747393","17.0"
"1528653747393","22.0"
"1528653747414","27.0"
"1528653747414","32.0"
"1528653747414","36.0"
"1528653747414","40.0"
"1528653747414","44.0"
"1528653747414","47.0"
"1528653747415","50.0"
"1528653747415","53.0"
"1528653747415","56.0"
"1528653747435","58.0"
"1528653747435","60.0"
"1528653747436","62.0"
"1528653747436","64.0"
"1528653747436","66.0"
"1528653747436","67.0"
"1528653747456","68.0"
"1528653747456","69.0"
"1528653747456","70.0"
"1528653747477","71.0"
"1528653747498","70.0"
"1528653747498","69.0"
"1528653747498","68.0"
"1528653747498","67.0"
"1528653747519","66.0"
"1528653747519","65.0"
"1528653747519","64.0"
"1528653747519","63.0"
"1528653747519","62.0"
"1528653747519","61.0"
"1528653747520","60.0"
"1528653747520","59.0"
"1528653747520","57.0"
"1528653747540","56.0"
"1528653747541","55.0"
"1528653747541","54.0"
"1528653747541","52.0"
"1528653747541","51.0"
"1528653747561","50.0"
"1528653747562","48.0"
"1528653747562","47.0"
"1528653747562","46.0"
"1528653747562","44.0"
"1528653747562","43.0"
"1528653747562","42.0"
"1528653747583","40.0"
"1528653747583","39.0"
"1528653747583","38.0"
"1528653747607","37.0"
"1528653747608","35.0"
"1528653747608","34.0"
"1528653747677","33.0"
"1528653747677","32.0"
"1528653747677","30.0"
"1528653747698","29.0"
"1528653747698","28.0"
"1528653747698","27.0"
"1528653747698","26.0"
"1528653747698","25.0"
"1528653747698","24.0"
"1528653747699","23.0"
"1528653747699","22.0"
"1528653747699","21.0"
"1528653747719","20.0"
"1528653747720","19.0"
"1528653747720","18.0"
"1528653747720","17.0"
"1528653747720","16.0"
"1528653747720","15.0"
"1528653747721","14.0"
"1528653747741","13.0"
"1528653747742","12.0"
"1528653747742","11.0"
"1528653747742","10.0"
"1528653747742","9.0"
"1528653747742","8.0"
"1528653747742","7.0"
"1528653747742","6.0"
"1528653747742","5.0"
"1528653747742","4.0"
"1528653747763","3.0"
"1528653747764","2.0"
"1528653747764","1.0"
"1528653747785","0.0"
"1528653747805","-1.0"
"1528653747971","0.0"
"1528653748615","-1.0"
"1528653748615","-3.0"
"1528653748615","-7.0"
"1528653748615","-14.0"
"1528653748615","-25.0"
"1528653748615","-40.0"
"1528653748639","-59.0"
"1528653748640","-84.0"
"1528653748640","-114.0"
"1528653748640","-151.0"
"1528653748698","-194.0"
"1528653748698","-245.0"
"1528653748698","-303.0"
"1528653748719","-369.0"
"1528653748719","-442.0"
"1528653748719","-522.0"
"1528653748719","-609.0"
"1528653748719","-702.0"
"1528653748719","-798.0"
"1528653748719","-896.0"
"1528653748719","-995.0"
"1528653748719","-1092.0"
"1528653748719","-1186.0"
"1528653748719","-1276.0"
"1528653748719","-1361.0"
"1528653748740","-1440.0"
"1528653748740","-1513.0"
"1528653748740","-1579.0"
"1528653748740","-1639.0"
"1528653748741","-1693.0"
"1528653748762","-1741.0"
"1528653748762","-1783.0"
"1528653748762","-1820.0"
"1528653748762","-1851.0"
"1528653748762","-1878.0"
"1528653748762","-1899.0"
"1528653748762","-1916.0"
"1528653748762","-1929.0"
"1528653748762","-1938.0"
"1528653748763","-1943.0"
"1528653748763","-1944.0"
"1528653748763","-1942.0"
"1528653748763","-1937.0"
"1528653748763","-1928.0"
"1528653748763","-1917.0"
"1528653748763","-1904.0"
"1528653748763","-1888.0"
"1528653748763","-1870.0"
"1528653748764","-1850.0"
"1528653748784","-1827.0"
"1528653748784","-1804.0"
"1528653748785","-1778.0"
"1528653748785","-1751.0"
"1528653748785","-1723.0"
"1528653748805","-1694.0"
"1528653748806","-1663.0"
"1528653748806","-1632.0"
"1528653748806","-1600.0"
"1528653748806","-1567.0"
"1528653748806","-1533.0"
"1528653748806","-1500.0"
"1528653748806","-1466.0"
"1528653748807","-1432.0"
"1528653748807","-1399.0"
"1528653748827","-1365.0"
"1528653748827","-1333.0"
"1528653748827","-1300.0"
"1528653748827","-1268.0"
"1528653748828","-1236.0"
"1528653748828","-1206.0"
"1528653748828","-1175.0"
"1528653748828","-1146.0"
"1528653748828","-1117.0"
"1528653748828","-1089.0"
"1528653748828","-1061.0"
"1528653748828","-1035.0"
"1528653748849","-1009.0"
"1528653748849","-984.0"
"1528653748849","-959.0"
"1528653748849","-935.0"
"1528653748849","-911.0"
"1528653748849","-887.0"
"1528653748870","-864.0"
"1528653748870","-842.0"
"1528653748870","-820.0"
"1528653748873","-798.0"
"1528653748873","-776.0"
"1528653748873","-755.0"
"1528653748873","-734.0"
"1528653748894","-714.0"
"1528653748894","-694.0"
"1528653748894","-674.0"
"1528653748894","-655.0"
"1528653748894","-636.0"
"1528653748915","-617.0"
"1528653748915","-598.0"
"1528653748915","-580.0"
"1528653748915","-563.0"
"1528653748915","-545.0"
"1528653748915","-528.0"
"1528653748915","-512.0"
"1528653748936","-496.0"
"1528653748936","-480.0"
"1528653748937","-464.0"
"1528653748937","-449.0"
"1528653748937","-434.0"
"1528653748958","-419.0"
"1528653748958","-405.0"
"1528653748958","-391.0"
"1528653748958","-378.0"
"1528653748958","-365.0"
"1528653748958","-352.0"
"1528653748958","-340.0"
"1528653748979","-327.0"
"1528653748979","-316.0"
"1528653748979","-304.0"
"1528653748980","-293.0"
"1528653748980","-282.0"
"1528653748980","-271.0"
"1528653748980","-261.0"
"1528653748980","-251.0"
"1528653748980","-241.0"
"1528653749001","-232.0"
"1528653749001","-223.0"
"1528653749001","-214.0"
"1528653749002","-205.0"
"1528653749022","-197.0"
"1528653749022","-189.0"
"1528653749023","-181.0"
"1528653749023","-174.0"
"1528653749023","-166.0"
"1528653749023","-159.0"
"1528653749023","-152.0"
"1528653749023","-146.0"
"1528653749044","-140.0"
"1528653749044","-133.0"
"1528653749044","-127.0"
"1528653749044","-122.0"
"1528653749044","-116.0"
"1528653749044","-111.0"
"1528653749045","-106.0"
"1528653749065","-101.0"
"1528653749065","-96.0"
"1528653749065","-92.0"
"1528653749065","-88.0"
"1528653749066","-83.0"
"1528653749086","-79.0"
"1528653749087","-76.0"
"1528653749087","-72.0"
"1528653749087","-68.0"
"1528653749087","-65.0"
"1528653749087","-62.0"
"1528653749087","-59.0"
"1528653749108","-56.0"
"1528653749108","-53.0"
"1528653749108","-50.0"
"1528653749108","-48.0"
"1528653749108","-45.0"
"1528653749128","-43.0"
"1528653749129","-41.0"
"1528653749129","-39.0"
"1528653749129","-37.0"
"1528653749129","-35.0"
"1528653749129","-33.0"
"1528653749150","-32.0"
"1528653749150","-30.0"
"1528653749150","-29.0"
"1528653749150","-27.0"
"1528653749150","-26.0"
"1528653749151","-25.0"
"1528653749151","-24.0"
"1528653749151","-23.0"
"1528653749151","-22.0"
"1528653749151","-21.0"
"1528653749172","-20.0"
"1528653749172","-19.0"
"1528653749172","-18.0"
"1528653749193","-17.0"
"1528653749193","-16.0"
"1528653749193","-15.0"
"1528653749193","-14.0"
"1528653749216","-13.0"
"1528653749217","-12.0"
"1528653749238","-11.0"
"1528653749259","-10.0"
"1528653749301","-11.0"
"1528653749487","-10.0"
"1528653749572","-9.0"
"1528653749737","-8.0"
"1528653749862","-7.0"
"1528653749944","-6.0"
"1528653749966","-5.0"
"1528653749987","-4.0"
"1528653750008","-3.0"
"1528653750029","-2.0"
"1528653750050","-1.0"
"1528653750070","0.0"
"1528653750092","1.0"
"1528653750092","2.0"
"1528653750092","3.0"
"1528653750113","4.0"
"1528653750113","5.0"
"1528653750113","6.0"
"1528653750113","7.0"
"1528653750134","8.0"
"1528653750134","9.0"
"1528653750134","10.0"
"1528653750135","11.0"
"1528653750135","12.0"
"1528653750155","13.0"
"1528653750155","14.0"
"1528653750156","15.0"
"1528653750156","16.0"
"1528653750156","18.0"
"1528653750156","19.0"
"1528653750176","20.0"
"1528653750176","21.0"
"1528653750177","23.0"
"1528653750177","24.0"
"1528653750177","26.0"
"1528653750177","27.0"
"1528653750177","29.0"
"1528653750177","31.0"
"1528653750177","33.0"
"1528653750198","35.0"
"1528653750198","37.0"
"1528653750198","39.0"
"1528653750200","41.0"
"1528653750200","43.0"
"1528653750200","46.0"
"1528653750221","48.0"
"1528653750221","51.0"
"1528653750221","53.0"
"1528653750221","56.0"
"1528653750221","59.0"
"1528653750221","62.0"
"1528653750242","65.0"
"1528653750242","68.0"
"1528653750242","72.0"
"1528653750242","75.0"
"1528653750242","79.0"
"1528653750242","83.0"
"1528653750263","87.0"
"1528653750263","91.0"
"1528653750263","95.0"
"1528653750263","99.0"
"1528653750284","104.0"
"1528653750285","108.0"
"1528653750286","113.0"
"1528653750286","118.0"
"1528653750286","123.0"
"1528653750286","128.0"
"1528653750307","133.0"
"1528653750307","138.0"
"1528653750307","144.0"
"1528653750307","150.0"
"1528653750307","156.0"
"1528653750308","161.0"
"1528653750328","168.0"
"1528653750328","174.0"
"1528653750328","180.0"
"1528653750329","187.0"
"1528653750329","193.0"
"1528653750329","200.0"
"1528653750329","207.0"
"1528653750329","214.0"
"1528653750329","221.0"
"1528653750352","229.0"
"1528653750352","236.0"
"1528653750352","244.0"
"1528653750352","252.0"
"1528653750352","260.0"
"1528653750352","268.0"
"1528653750353","277.0"
"1528653750353","286.0"
"1528653750353","295.0"
"1528653750373","305.0"
"1528653750373","315.0"
"1528653750373","325.0"
"1528653750373","336.0"
"1528653750373","346.0"
"1528653750373","357.0"
"1528653750394","369.0"
"1528653750394","380.0"
"1528653750415","392.0"
"1528653750415","404.0"
"1528653750415","417.0"
"1528653750417","429.0"
"1528653750417","442.0"
"1528653750417","455.0"
"1528653750417","468.0"
"1528653750417","480.0"
"1528653750417","493.0"
"1528653750417","506.0"
"1528653750438","520.0"
"1528653750438","524.0"
"1528653750438","525.0"
"1528653750438","526.0"
"1528653750438","527.0"
"1528653750459","528.0"
"1528653750459","529.0"
"1528653750459","530.0"
"1528653750459","531.0"
"1528653750459","532.0"
"1528653750460","533.0"
"1528653750481","534.0"
"1528653750482","535.0"
"1528653750482","536.0"
"1528653750482","537.0"
"1528653750482","538.0"
"1528653750503","539.0"
"1528653750503","540.0"
"1528653750503","541.0"
"1528653750503","542.0"
"1528653750503","544.0"
"1528653750503","545.0"
"1528653750503","546.0"
"1528653750524","547.0"
"1528653750524","548.0"
"1528653750524","549.0"
"1528653750524","550.0"
"1528653750524","551.0"
"1528653750545","552.0"
"1528653750545","553.0"
"1528653750546","554.0"
"1528653750547","555.0"
"1528653750547","556.0"
"1528653750547","557.0"
"1528653750568","558.0"
"1528653750568","559.0"
"1528653750568","560.0"
"1528653750568","561.0"
"1528653750568","562.0"
"1528653750589","563.0"
"1528653750589","564.0"
"1528653750628","560.0"
"1528653750628","552.0"
"1528653750628","544.0"
"1528653750649","536.0"
"1528653750649","528.0"
"1528653750649","519.0"
"1528653750649","511.0"
"1528653750650","502.0"
"1528653750672","494.0"
"1528653750672","486.0"
"1528653750672","477.0"
"1528653750672","469.0"
"1528653750693","461.0"
"1528653750693","453.0"
"1528653750693","444.0"
"1528653750693","436.0"
"1528653750693","427.0"
"1528653750693","419.0"
"1528653750693","410.0"
"1528653750694","402.0"
"1528653750714","394.0"
"1528653750715","385.0"
"1528653750715","377.0"
"1528653750715","369.0"
"1528653750715","362.0"
"1528653750715","354.0"
"1528653750715","346.0"
"1528653750717","338.0"
"1528653750717","330.0"
"1528653750717","322.0"
"1528653750717","314.0"
"1528653750717","306.0"
"1528653750717","299.0"
"1528653750717","292.0"
"1528653750717","285.0"
"1528653750717","278.0"
"1528653750718","272.0"
"1528653750718","265.0"
"1528653750718","259.0"
"1528653750718","253.0"
"1528653750738","248.0"
"1528653750739","244.0"
"1528653750739","241.0"
"1528653750739","238.0"
"1528653750739","237.0"
"1528653750740","238.0"
"1528653750742","239.0"
"1528653750742","240.0"
"1528653750743","241.0"
"1528653750743","242.0"
"1528653750764","241.0"
"1528653750764","240.0"
"1528653750786","239.0"
"1528653750787","237.0"
"1528653750787","236.0"
"1528653750787","234.0"
"1528653750787","232.0"
"1528653750787","230.0"
"1528653750808","228.0"
"1528653750808","226.0"
"1528653750809","225.0"
"1528653750810","223.0"
"1528653750810","221.0"
"1528653750830","220.0"
"1528653750830","218.0"
"1528653750830","216.0"
"1528653750831","214.0"
"1528653750831","213.0"
"1528653750831","211.0"
"1528653750831","209.0"
"1528653750831","208.0"
"1528653750831","207.0"
"1528653750852","206.0"
"1528653750852","205.0"
"1528653750852","204.0"
"1528653750852","203.0"
"1528653750852","204.0"
"1528653750872","205.0"
"1528653750873","206.0"
"1528653750873","207.0"
"1528653750874","208.0"
"1528653750874","209.0"
"1528653750874","210.0"
"1528653750894","211.0"
"1528653750894","212.0"
"1528653750915","214.0"
"1528653750915","216.0"
"1528653750915","219.0"
"1528653750915","224.0"
"1528653750915","231.0"
"1528653750915","239.0"
"1528653750936","248.0"
"1528653750936","259.0"
"1528653750936","270.0"
"1528653750936","282.0"
"1528653750957","293.0"
"1528653750957","304.0"
"1528653750958","315.0"
"1528653750960","324.0"
"1528653750960","333.0"
"1528653750960","341.0"
"1528653750961","349.0"
"1528653750961","355.0"
"1528653750961","361.0"
"1528653750961","366.0"
"1528653750961","371.0"
"1528653750981","376.0"
"1528653750981","380.0"
"1528653750981","385.0"
"1528653750981","389.0"
"1528653750982","395.0"
"1528653750982","401.0"
"1528653750982","410.0"
"1528653751002","421.0"
"1528653751002","436.0"
"1528653751002","454.0"
"1528653751002","474.0"
"1528653751003","498.0"
"1528653751004","523.0"
"1528653751024","550.0"
"1528653751025","578.0"
"1528653751025","588.0"
"1528653751025","589.0"
"1528653751025","590.0"
"1528653751025","591.0"
"1528653751025","592.0"
"1528653751025","593.0"
"1528653751046","594.0"
"1528653751046","596.0"
"1528653751046","597.0"
"1528653751046","598.0"
"1528653751046","599.0"
"1528653751067","600.0"
"1528653751067","601.0"
"1528653751067","603.0"
"1528653751067","604.0"
"1528653751067","605.0"
"1528653751068","606.0"
"1528653751089","608.0"
"1528653751089","609.0"
"1528653751089","610.0"
"1528653751089","611.0"
"1528653751089","612.0"
"1528653751089","613.0"
"1528653751090","615.0"
"1528653751110","616.0"
"1528653751110","617.0"
"1528653751110","618.0"
"1528653751111","619.0"
"1528653751111","620.0"
"1528653751111","621.0"
"1528653751111","622.0"
"1528653751132","623.0"
"1528653751132","624.0"
"1528653751133","625.0"
"1528653751133","626.0"
"1528653751140","623.0"
"1528653751162","607.0"
"1528653751162","592.0"
"1528653751162","577.0"
"1528653751162","562.0"
"1528653751162","547.0"
"1528653751162","531.0"
"1528653751183","516.0"
"1528653751183","501.0"
"1528653751184","486.0"
"1528653751184","471.0"
"1528653751184","456.0"
"1528653751184","441.0"
"1528653751184","426.0"
"1528653751185","412.0"
"1528653751185","397.0"
"1528653751185","383.0"
"1528653751185","369.0"
"1528653751185","356.0"
"1528653751206","342.0"
"1528653751206","329.0"
"1528653751207","316.0"
"1528653751227","303.0"
"1528653751228","291.0"
"1528653751228","279.0"
"1528653751228","267.0"
"1528653751228","255.0"
"1528653751228","244.0"
"1528653751248","233.0"
"1528653751249","222.0"
"1528653751249","211.0"
"1528653751249","201.0"
"1528653751249","191.0"
"1528653751249","181.0"
"1528653751249","172.0"
"1528653751249","163.0"
"1528653751249","154.0"
"1528653751270","145.0"
"1528653751270","137.0"
"1528653751290","129.0"
"1528653751291","121.0"
"1528653751291","114.0"
"1528653751291","106.0"
"1528653751291","99.0"
"1528653751291","93.0"
"1528653751291","86.0"
"1528653751291","80.0"
"1528653751291","74.0"
"1528653751291","68.0"
"1528653751312","63.0"
"1528653751312","57.0"
"1528653751312","52.0"
"1528653751312","48.0"
"1528653751312","43.0"
"1528653751313","39.0"
"1528653751333","34.0"
"1528653751333","30.0"
"1528653751333","27.0"
"1528653751334","23.0"
"1528653751334","20.0"
"1528653751335","16.0"
"1528653751358","13.0"
"1528653751358","10.0"
"1528653751358","7.0"
"1528653751358","5.0"
"1528653751358","2.0"
"1528653751358","0.0"
"1528653751358","-1.0"
"1528653751359","-3.0"
"1528653751359","-5.0"
"1528653751359","-7.0"
"1528653751379","-8.0"
"1528653751379","-10.0"
"1528653751379","-11.0"
"1528653751380","-13.0"
"1528653751380","-14.0"
"1528653751400","-15.0"
"1528653751400","-16.0"
"1528653751400","-17.0"
"1528653751400","-18.0"
"1528653751425","-19.0"
"1528653751425","-20.0"
"1528653751425","-21.0"
"1528653751426","-22.0"
"1528653751446","-23.0"
"1528653751467","-22.0"
"1528653751489","-21.0"
"1528653751489","-20.0"
"1528653751510","-19.0"
"1528653751510","-18.0"
"1528653751511","-17.0"
"1528653751511","-16.0"
"1528653751531","-15.0"
"1528653751554","-14.0"
"1528653751554","-13.0"
"1528653751554","-12.0"
"1528653751575","-11.0"
"1528653751575","-10.0"
"1528653751596","-9.0"
"1528653751596","-8.0"
"1528653751596","-7.0"
"1528653751618","-6.0"
"1528653751619","-5.0"
"1528653751640","-4.0"
"1528653751662","-3.0"
"1528653751683","-2.0"
"1528653751704","-1.0"
"1528653751725","0.0"
"1528653752194","-1.0"
"1528653752194","-2.0"
"1528653752194","-4.0"
"1528653752222","-7.0"
"1528653752222","-11.0"
"1528653752222","-17.0"
"1528653752222","-24.0"
"1528653752222","-32.0"
"1528653752223","-41.0"
"1528653752223","-50.0"
"1528653752243","-60.0"
"1528653752244","-69.0"
"1528653752244","-78.0"
"1528653752244","-86.0"
"1528653752244","-93.0"
"1528653752244","-100.0"
"1528653752244","-106.0"
"1528653752244","-112.0"
"1528653752244","-118.0"
"1528653752265","-124.0"
"1528653752265","-130.0"
"1528653752265","-136.0"
"1528653752286","-141.0"
"1528653752287","-147.0"
"1528653752287","-153.0"
"1528653752287","-158.0"
"1528653752287","-163.0"
"1528653752287","-168.0"
"1528653752310","-173.0"
"1528653752310","-178.0"
"1528653752310","-183.0"
"1528653752331","-188.0"
"1528653752331","-193.0"
"1528653752331","-198.0"
"1528653752351","-204.0"
"1528653752352","-211.0"
"1528653752373","-219.0"
"1528653752373","-228.0"
"1528653752373","-240.0"
"1528653752373","-255.0"
"1528653752373","-272.0"
"1528653752373","-292.0"
"1528653752374","-316.0"
"1528653752374","-342.0"
"1528653752375","-371.0"
"1528653752375","-404.0"
"1528653752395","-441.0"
"1528653752395","-482.0"
"1528653752395","-527.0"
"1528653752395","-575.0"
"1528653752395","-626.0"
"1528653752395","-680.0"
"1528653752395","-735.0"
"1528653752395","-791.0"
"1528653752396","-845.0"
"1528653752396","-898.0"
"1528653752396","-949.0"
"1528653752396","-997.0"
"1528653752416","-1042.0"
"1528653752417","-1083.0"
"1528653752417","-1122.0"
"1528653752417","-1156.0"
"1528653752417","-1187.0"
"1528653752420","-1214.0"
"1528653752420","-1238.0"
"1528653752420","-1258.0"
"1528653752420","-1275.0"
"1528653752441","-1289.0"
"1528653752442","-1300.0"
"1528653752442","-1308.0"
"1528653752442","-1314.0"
"1528653752442","-1318.0"
"1528653752442","-1320.0"
"1528653752442","-1319.0"
"1528653752443","-1317.0"
"1528653752443","-1313.0"
"1528653752463","-1306.0"
"1528653752464","-1298.0"
"1528653752464","-1288.0"
"1528653752464","-1276.0"
"1528653752464","-1262.0"
"1528653752464","-1247.0"
"1528653752485","-1229.0"
"1528653752487","-1209.0"
"1528653752488","-1187.0"
"1528653752488","-1163.0"
"1528653752488","-1136.0"
"1528653752488","-1105.0"
"1528653752509","-1070.0"
"1528653752510","-1031.0"
"1528653752510","-988.0"
"1528653752510","-941.0"
"1528653752530","-889.0"
"1528653752530","-834.0"
"1528653752530","-775.0"
"1528653752551","-718.0"
"1528653752551","-671.0"
"1528653752572","-638.0"
"1528653752572","-619.0"
"1528653752572","-612.0"
"1528653752572","-613.0"
"1528653752572","-619.0"
"1528653752572","-626.0"
"1528653752573","-633.0"
"1528653752594","-638.0"
"1528653752594","-641.0"
"1528653752615","-636.0"
"1528653752615","-626.0"
"1528653752615","-609.0"
"1528653752635","-586.0"
"1528653752635","-557.0"
"1528653752658","-521.0"
"1528653752658","-479.0"
"1528653752658","-431.0"
"1528653752659","-379.0"
"1528653752679","-323.0"
"1528653752679","-262.0"
"1528653752679","-197.0"
"1528653752700","-127.0"
"1528653752700","-55.0"
"1528653752700","15.0"
"1528653752721","81.0"
"1528653752725","139.0"
"1528653752725","189.0"
"1528653752725","231.0"
"1528653752725","265.0"
"1528653752725","293.0"
"1528653752725","315.0"
"1528653752725","332.0"
"1528653752725","346.0"
"1528653752725","356.0"
"1528653752725","363.0"
"1528653752725","367.0"
"1528653752725","370.0"
"1528653752726","371.0"
"1528653752726","369.0"
"1528653752726","366.0"
"1528653752726","362.0"
"1528653752726","358.0"
"1528653752746","353.0"
"1528653752746","347.0"
"1528653752747","341.0"
"1528653752747","334.0"
"1528653752747","327.0"
"1528653752748","319.0"
"1528653752748","311.0"
"1528653752748","303.0"
"1528653752748","294.0"
"1528653752748","286.0"
"1528653752748","277.0"
"1528653752748","269.0"
"1528653752748","260.0"
"1528653752748","252.0"
"1528653752748","244.0"
"1528653752748","237.0"
"1528653752748","230.0"
"1528653752748","223.0"
"1528653752748","216.0"
"1528653752748","210.0"
"1528653752748","204.0"
"1528653752748","198.0"
"1528653752749","192.0"
"1528653752770","185.0"
"1528653752770","179.0"
"1528653752770","172.0"
"1528653752770","166.0"
"1528653752770","159.0"
"1528653752770","152.0"
"1528653752770","145.0"
"1528653752771","139.0"
"1528653752771","132.0"
"1528653752771","125.0"
"1528653752771","118.0"
"1528653752771","111.0"
"1528653752791","105.0"
"1528653752792","98.0"
"1528653752792","92.0"
"1528653752792","86.0"
"1528653752812","81.0"
"1528653752812","75.0"
"1528653752813","70.0"
"1528653752815","64.0"
"1528653752815","59.0"
"1528653752815","54.0"
"1528653752836","49.0"
"1528653752836","45.0"
"1528653752836","40.0"
"1528653752836","35.0"
"1528653752837","30.0"
"1528653752837","26.0"
"1528653752837","22.0"
"1528653752837","17.0"
"1528653752837","13.0"
"1528653752838","10.0"
"1528653752859","6.0"
"1528653752859","2.0"
"1528653752859","-1.0"
"1528653752859","-5.0"
"1528653752859","-8.0"
"1528653752860","-12.0"
"1528653752881","-15.0"
"1528653752887","-18.0"
"1528653752887","-22.0"
"1528653752888","-25.0"
"1528653752888","-28.0"
"1528653752888","-32.0"
"1528653752908","-35.0"
"1528653752909","-38.0"
"1528653752909","-41.0"
"1528653752909","-43.0"
"1528653752909","-46.0"
"1528653752909","-47.0"
"1528653752909","-48.0"
"1528653752910","-49.0"
"1528653752940","-48.0"
"1528653752940","-45.0"
"1528653752941","-42.0"
"1528653752961","-38.0"
"1528653752961","-34.0"
"1528653752962","-29.0"
"1528653752963","-24.0"
"1528653752963","-18.0"
"1528653752963","-13.0"
"1528653752983","-8.0"
"1528653752983","-3.0"
"1528653752984","1.0"
"1528653752984","5.0"
"1528653752984","9.0"
"1528653752984","13.0"
"1528653752984","15.0"
"1528653752984","17.0"
"1528653752984","18.0"
"1528653752984","19.0"
"1528653752984","18.0"
"1528653752984","17.0"
"1528653753005","14.0"
"1528653753005","12.0"
"1528653753005","8.0"
"1528653753005","5.0"
"1528653753005","0.0"
"1528653753006","-3.0"
"1528653753006","-8.0"
"1528653753006","-13.0"
"1528653753007","-19.0"
"1528653753027","-25.0"
"1528653753027","-30.0"
"1528653753027","-36.0"
"1528653753027","-42.0"
"1528653753028","-47.0"
"1528653753028","-53.0"
"1528653753049","-58.0"
"1528653753049","-63.0"
"1528653753049","-68.0"
"1528653753070","-72.0"
"1528653753070","-77.0"
"1528653753070","-81.0"
"1528653753070","-85.0"
"1528653753070","-88.0"
"1528653753070","-90.0"
"1528653753071","-93.0"
"1528653753092","-94.0"
"1528653753092","-96.0"
"1528653753092","-97.0"
"1528653753093","-98.0"
"1528653753093","-97.0"
"1528653753121","-96.0"
"1528653753122","-95.0"
"1528653753122","-93.0"
"1528653753122","-90.0"
"1528653753144","-88.0"
"1528653753144","-84.0"
"1528653753145","-80.0"
"1528653753145","-75.0"
"1528653753145","-70.0"
"1528653753145","-65.0"
"1528653753145","-59.0"
"1528653753145","-52.0"
"1528653753146","-41.0"
"1528653753167","-24.0"
"1528653753167","0.0"
"1528653753167","31.0"
"1528653753167","69.0"
"1528653753167","112.0"
"1528653753167","157.0"
"1528653753167","203.0"
"1528653753168","250.0"
"1528653753168","297.0"
"1528653753168","344.0"
"1528653753168","389.0"
"1528653753168","434.0"
"1528653753189","477.0"
"1528653753189","519.0"
"1528653753189","559.0"
"1528653753189","565.0"
"1528653753189","566.0"
"1528653753189","567.0"
"1528653753210","568.0"
"1528653753211","569.0"
"1528653753211","570.0"
"1528653753211","571.0"
"1528653753212","573.0"
"1528653753212","574.0"
"1528653753233","575.0"
"1528653753233","576.0"
"1528653753233","578.0"
"1528653753233","579.0"
"1528653753233","580.0"
"1528653753233","582.0"
"1528653753254","583.0"
"1528653753255","585.0"
"1528653753255","586.0"
"1528653753255","587.0"
"1528653753255","589.0"
"1528653753255","590.0"
"1528653753276","592.0"
"1528653753277","593.0"
"1528653753277","594.0"
"1528653753278","596.0"
"1528653753299","597.0"
"1528653753299","598.0"
"1528653753299","599.0"
"1528653753299","601.0"
"1528653753299","602.0"
"1528653753299","603.0"
"1528653753300","604.0"
"1528653753300","605.0"
"1528653753300","606.0"
"1528653753300","607.0"
"1528653753300","608.0"
"1528653753321","609.0"
"1528653753321","610.0"
"1528653753321","607.0"
"1528653753321","592.0"
"1528653753321","579.0"
"1528653753321","567.0"
"1528653753342","557.0"
"1528653753343","547.0"
"1528653753364","538.0"
"1528653753364","531.0"
"1528653753364","523.0"
"1528653753364","516.0"
"1528653753364","508.0"
"1528653753364","501.0"
"1528653753365","493.0"
"1528653753365","486.0"
"1528653753365","478.0"
"1528653753365","470.0"
"1528653753385","462.0"
"1528653753385","454.0"
"1528653753386","447.0"
"1528653753386","440.0"
"1528653753386","433.0"
"1528653753386","427.0"
"1528653753406","422.0"
"1528653753407","417.0"
"1528653753407","413.0"
"1528653753413","409.0"
"1528653753413","406.0"
"1528653753414","402.0"
"1528653753435","397.0"
"1528653753435","393.0"
"1528653753435","388.0"
"1528653753435","383.0"
"1528653753435","378.0"
"1528653753436","373.0"
"1528653753456","367.0"
"1528653753456","361.0"
"1528653753456","354.0"
"1528653753456","348.0"
"1528653753457","341.0"
"1528653753457","334.0"
"1528653753457","327.0"
"1528653753457","320.0"
"1528653753457","313.0"
"1528653753478","306.0"
"1528653753478","298.0"
"1528653753479","291.0"
"1528653753500","284.0"
"1528653753500","276.0"
"1528653753500","269.0"
"1528653753501","261.0"
"1528653753501","254.0"
"1528653753501","246.0"
"1528653753501","239.0"
"1528653753502","231.0"
"1528653753502","224.0"
"1528653753523","217.0"
"1528653753523","210.0"
"1528653753523","203.0"
"1528653753523","196.0"
"1528653753524","189.0"
"1528653753524","182.0"
"1528653753524","175.0"
"1528653753524","169.0"
"1528653753524","162.0"
"1528653753545","156.0"
"1528653753545","150.0"
"1528653753545","143.0"
"1528653753545","137.0"
"1528653753545","132.0"
"1528653753545","126.0"
"1528653753600","120.0"
"1528653753600","115.0"
"1528653753600","109.0"
"1528653753600","104.0"
"1528653753621","99.0"
"1528653753621","94.0"
"1528653753621","89.0"
"1528653753621","85.0"
"1528653753621","80.0"
"1528653753656","76.0"
"1528653753656","72.0"
"1528653753656","68.0"
"1528653753682","64.0"
"1528653753682","60.0"
"1528653753683","56.0"
"1528653753703","53.0"
"1528653753706","49.0"
"1528653753707","46.0"
"1528653753707","43.0"
"1528653753707","40.0"
"1528653753707","37.0"
"1528653753707","34.0"
"1528653753707","31.0"
"1528653753707","28.0"
"1528653753707","26.0"
"1528653753707","24.0"
"1528653753707","21.0"
"1528653753707","19.0"
"1528653753728","17.0"
"1528653753728","15.0"
"1528653753728","13.0"
"1528653753728","11.0"
"1528653753728","10.0"
"1528653753728","8.0"
"1528653753728","7.0"
"1528653753728","5.0"
"1528653753729","4.0"
"1528653753729","3.0"
"1528653753729","1.0"
"1528653753729","0.0"
"1528653753729","-1.0"
"1528653753729","-2.0"
"1528653753729","-3.0"
"1528653753729","-4.0"
"1528653753729","-5.0"
"1528653753729","-6.0"
"1528653753730","-7.0"
"1528653753730","-8.0"
"1528653753730","-9.0"
"1528653753751","-10.0"
"1528653753751","-11.0"
"1528653753813","-10.0"
"1528653753835","-9.0"
"1528653753835","-8.0"
"1528653753855","-7.0"
"1528653753877","-6.0"
"1528653753898","-5.0"
"1528653753919","-4.0"
"1528653753939","-3.0"
"1528653753961","-2.0"
"1528653753982","-1.0"
"1528653754024","0.0"
"1528653754210","-1.0"
"1528653754210","-3.0"
"1528653754230","-4.0"
"1528653754231","-7.0"
"1528653754231","-10.0"
"1528653754231","-14.0"
"1528653754231","-19.0"
"1528653754252","-25.0"
"1528653754252","-32.0"
"1528653754252","-41.0"
"1528653754252","-50.0"
"1528653754252","-61.0"
"1528653754252","-74.0"
"1528653754252","-88.0"
"1528653754273","-103.0"
"1528653754273","-120.0"
"1528653754273","-138.0"
"1528653754274","-156.0"
"1528653754274","-175.0"
"1528653754274","-195.0"
"1528653754274","-214.0"
"1528653754274","-233.0"
"1528653754274","-251.0"
"1528653754295","-269.0"
"1528653754295","-286.0"
"1528653754295","-302.0"
"1528653754295","-317.0"
"1528653754295","-332.0"
"1528653754296","-346.0"
"1528653754316","-358.0"
"1528653754316","-370.0"
"1528653754316","-381.0"
"1528653754316","-391.0"
"1528653754316","-400.0"
"1528653754317","-408.0"
"1528653754337","-415.0"
"1528653754337","-421.0"
"1528653754337","-427.0"
"1528653754337","-431.0"
"1528653754338","-435.0"
"1528653754338","-439.0"
"1528653754358","-441.0"
"1528653754358","-442.0"
"1528653754358","-443.0"
"1528653754359","-442.0"
"1528653754359","-441.0"
"1528653754359","-439.0"
"1528653754379","-436.0"
"1528653754379","-433.0"
"1528653754380","-429.0"
"1528653754380","-425.0"
"1528653754380","-420.0"
"1528653754380","-416.0"
"1528653754400","-411.0"
"1528653754401","-405.0"
"1528653754401","-399.0"
"1528653754401","-393.0"
"1528653754401","-387.0"
"1528653754401","-381.0"
"1528653754421","-374.0"
"1528653754422","-367.0"
"1528653754422","-360.0"
"1528653754422","-353.0"
"1528653754422","-346.0"
"1528653754422","-339.0"
"1528653754422","-332.0"
"1528653754442","-325.0"
"1528653754443","-317.0"
"1528653754443","-309.0"
"1528653754443","-301.0"
"1528653754443","-293.0"
"1528653754464","-285.0"
"1528653754464","-277.0"
"1528653754464","-269.0"
"1528653754464","-260.0"
"1528653754464","-252.0"
"1528653754465","-244.0"
"1528653754485","-236.0"
"1528653754486","-228.0"
"1528653754486","-220.0"
"1528653754486","-213.0"
"1528653754487","-205.0"
"1528653754487","-198.0"
"1528653754487","-192.0"
"1528653754507","-185.0"
"1528653754508","-179.0"
"1528653754508","-173.0"
"1528653754508","-167.0"
"1528653754508","-163.0"
"1528653754508","-158.0"
"1528653754528","-154.0"
"1528653754529","-150.0"
"1528653754529","-146.0"
"1528653754529","-142.0"
"1528653754529","-137.0"
"1528653754529","-133.0"
"1528653754529","-129.0"
"1528653754550","-125.0"
"1528653754550","-120.0"
"1528653754550","-116.0"
"1528653754550","-112.0"
"1528653754550","-109.0"
"1528653754550","-106.0"
"1528653754550","-104.0"
"1528653754551","-103.0"
"1528653754585","-104.0"
"1528653754585","-106.0"
"1528653754605","-107.0"
"1528653754605","-109.0"
"1528653754606","-111.0"
"1528653754606","-113.0"
"1528653754606","-115.0"
"1528653754636","-118.0"
"1528653754636","-120.0"
"1528653754636","-122.0"
"1528653754636","-124.0"
"1528653754636","-126.0"
"1528653754636","-128.0"
"1528653754636","-131.0"
"1528653754657","-134.0"
"1528653754657","-137.0"
"1528653754689","-140.0"
"1528653754689","-144.0"
"1528653754689","-149.0"
"1528653754690","-155.0"
"1528653754710","-163.0"
"1528653754710","-171.0"
"1528653754710","-180.0"
"1528653754710","-191.0"
"1528653754710","-203.0"
"1528653754710","-216.0"
"1528653754710","-230.0"
"1528653754710","-245.0"
"1528653754731","-261.0"
"1528653754731","-278.0"
"1528653754731","-296.0"
"1528653754731","-314.0"
"1528653754731","-332.0"
"1528653754731","-350.0"
"1528653754731","-369.0"
"1528653754731","-387.0"
"1528653754731","-404.0"
"1528653754732","-420.0"
"1528653754752","-435.0"
"1528653754752","-449.0"
"1528653754753","-462.0"
"1528653754753","-473.0"
"1528653754753","-483.0"
"1528653754753","-491.0"
"1528653754753","-497.0"
"1528653754753","-502.0"
"1528653754754","-507.0"
"1528653754754","-510.0"
"1528653754754","-512.0"
"1528653754754","-513.0"
"1528653754754","-514.0"
"1528653754755","-513.0"
"1528653754775","-512.0"
"1528653754775","-510.0"
"1528653754776","-507.0"
"1528653754776","-503.0"
"1528653754776","-499.0"
"1528653754776","-495.0"
"1528653754776","-490.0"
"1528653754776","-484.0"
"1528653754777","-478.0"
"1528653754777","-472.0"
"1528653754800","-465.0"
"1528653754801","-458.0"
"1528653754801","-450.0"
"1528653754822","-442.0"
"1528653754822","-434.0"
"1528653754822","-426.0"
"1528653754822","-417.0"
"1528653754822","-409.0"
"1528653754822","-401.0"
"1528653754822","-393.0"
"1528653754822","-385.0"
"1528653754822","-379.0"
"1528653754822","-373.0"
"1528653754823","-368.0"
"1528653754823","-364.0"
"1528653754843","-361.0"
"1528653754843","-362.0"
"1528653754843","-364.0"
"1528653754843","-366.0"
"1528653754864","-368.0"
"1528653754864","-370.0"
"1528653754864","-371.0"
"1528653754864","-372.0"
"1528653754864","-371.0"
"1528653754864","-370.0"
"1528653754864","-368.0"
"1528653754865","-366.0"
"1528653754886","-363.0"
"1528653754886","-359.0"
"1528653754886","-355.0"
"1528653754886","-351.0"
"1528653754886","-346.0"
"1528653754886","-341.0"
"1528653754907","-335.0"
"1528653754907","-328.0"
"1528653754907","-321.0"
"1528653754907","-313.0"
"1528653754907","-305.0"
"1528653754907","-296.0"
"1528653754927","-287.0"
"1528653754928","-277.0"
"1528653754928","-268.0"
"1528653754928","-258.0"
"1528653754928","-248.0"
"1528653754928","-237.0"
"1528653754928","-227.0"
"1528653754949","-217.0"
"1528653754950","-208.0"
"1528653754950","-201.0"
"1528653754950","-195.0"
"1528653754950","-191.0"
"1528653754950","-187.0"
"1528653754971","-185.0"
"1528653754971","-182.0"
"1528653754971","-180.0"
"1528653754991","-177.0"
"1528653754991","-175.0"
"1528653754992","-172.0"
"1528653754992","-170.0"
"1528653754992","-168.0"
"1528653754992","-166.0"
"1528653755012","-164.0"
"1528653755013","-162.0"
"1528653755013","-161.0"
"1528653755014","-162.0"
"1528653755015","-163.0"
"1528653755015","-164.0"
"1528653755015","-165.0"
"1528653755035","-166.0"
"1528653755036","-165.0"
"1528653755036","-163.0"
"1528653755036","-161.0"
"1528653755036","-158.0"
"1528653755056","-154.0"
"1528653755057","-149.0"
"1528653755057","-144.0"
"1528653755057","-137.0"
"1528653755057","-130.0"
"1528653755057","-123.0"
"1528653755087","-115.0"
"1528653755087","-108.0"
"1528653755087","-100.0"
"1528653755108","-93.0"
"1528653755109","-86.0"
"1528653755109","-79.0"
"1528653755109","-71.0"
"1528653755109","-62.0"
"1528653755109","-52.0"
"1528653755109","-41.0"
"1528653755109","-28.0"
"1528653755109","-15.0"
"1528653755109","0.0"
"1528653755110","13.0"
"1528653755110","28.0"
"1528653755110","44.0"
"1528653755110","59.0"
"1528653755110","73.0"
"1528653755130","88.0"
"1528653755131","102.0"
"1528653755131","117.0"
"1528653755131","132.0"
"1528653755131","146.0"
"1528653755131","161.0"
"1528653755152","175.0"
"1528653755152","189.0"
"1528653755152","204.0"
"1528653755152","219.0"
"1528653755152","235.0"
"1528653755152","251.0"
"1528653755173","268.0"
"1528653755173","284.0"
"1528653755173","301.0"
"1528653755173","316.0"
"1528653755173","332.0"
"1528653755173","345.0"
"1528653755194","358.0"
"1528653755194","369.0"
"1528653755194","379.0"
"1528653755194","387.0"
"1528653755215","393.0"
"1528653755215","396.0"
"1528653755215","393.0"
"1528653755215","387.0"
"1528653755215","377.0"
"1528653755215","364.0"
"1528653755215","348.0"
"1528653755236","329.0"
"1528653755236","307.0"
"1528653755236","281.0"
"1528653755237","254.0"
"1528653755237","223.0"
"1528653755237","191.0"
"1528653755237","158.0"
"1528653755258","123.0"
"1528653755258","87.0"
"1528653755258","52.0"
"1528653755258","16.0"
"1528653755259","-18.0"
"1528653755280","-53.0"
"1528653755280","-86.0"
"1528653755280","-118.0"
"1528653755280","-150.0"
"1528653755280","-180.0"
"1528653755281","-208.0"
"1528653755281","-235.0"
"1528653755281","-261.0"
"1528653755281","-286.0"
"1528653755281","-309.0"
"1528653755302","-330.0"
"1528653755302","-351.0"
"1528653755323","-370.0"
"1528653755323","-388.0"
"1528653755323","-404.0"
"1528653755323","-419.0"
"1528653755323","-433.0"
"1528653755323","-446.0"
"1528653755323","-457.0"
"1528653755323","-466.0"
"1528653755323","-475.0"
"1528653755324","-482.0"
"1528653755353","-488.0"
"1528653755353","-492.0"
"1528653755374","-495.0"
"1528653755374","-497.0"
"1528653755374","-498.0"
"1528653755374","-497.0"
"1528653755395","-496.0"
"1528653755395","-494.0"
"1528653755396","-490.0"
"1528653755396","-486.0"
"1528653755396","-481.0"
"1528653755396","-475.0"
"1528653755396","-468.0"
"1528653755396","-461.0"
"1528653755397","-453.0"
"1528653755397","-444.0"
"1528653755397","-435.0"
"1528653755397","-425.0"
"1528653755418","-414.0"
"1528653755418","-403.0"
"1528653755418","-392.0"
"1528653755419","-381.0"
"1528653755419","-369.0"
"1528653755419","-357.0"
"1528653755440","-345.0"
"1528653755440","-333.0"
"1528653755441","-321.0"
"1528653755441","-309.0"
"1528653755441","-297.0"
"1528653755441","-285.0"
"1528653755441","-273.0"
"1528653755464","-261.0"
"1528653755464","-248.0"
"1528653755464","-236.0"
"1528653755464","-224.0"
"1528653755464","-212.0"
"1528653755464","-200.0"
"1528653755464","-188.0"
"1528653755464","-177.0"
"1528653755465","-165.0"
"1528653755485","-154.0"
"1528653755487","-142.0"
"1528653755487","-131.0"
"1528653755487","-120.0"
"1528653755487","-109.0"
"1528653755487","-98.0"
"1528653755508","-88.0"
"1528653755508","-78.0"
"1528653755508","-68.0"
"1528653755508","-58.0"
"1528653755508","-49.0"
"1528653755508","-40.0"
"1528653755509","-32.0"
"1528653755509","-25.0"
"1528653755530","-18.0"
"1528653755530","-13.0"
"1528653755530","-9.0"
"1528653755530","-6.0"
"1528653755530","-4.0"
"1528653755551","-5.0"
"1528653755552","-6.0"
"1528653755552","-9.0"
"1528653755552","-12.0"
"1528653755552","-16.0"
"1528653755552","-21.0"
"1528653755552","-27.0"
"1528653755573","-33.0"
"1528653755573","-41.0"
"1528653755573","-51.0"
"1528653755573","-62.0"
"1528653755573","-74.0"
"1528653755573","-88.0"
"1528653755594","-105.0"
"1528653755594","-124.0"
"1528653755594","-148.0"
"1528653755615","-176.0"
"1528653755615","-207.0"
"1528653755615","-239.0"
"1528653755615","-269.0"
"1528653755678","-297.0"
"1528653755678","-323.0"
"1528653755699","-347.0"
"1528653755699","-368.0"
"1528653755699","-386.0"
"1528653755699","-401.0"
"1528653755699","-412.0"
"1528653755699","-416.0"
"1528653755699","-414.0"
"1528653755699","-404.0"
"1528653755700","-388.0"
"1528653755700","-366.0"
"1528653755720","-338.0"
"1528653755720","-305.0"
"1528653755721","-269.0"
"1528653755721","-230.0"
"1528653755721","-189.0"
"1528653755721","-148.0"
"1528653755721","-106.0"
"1528653755721","-66.0"
"1528653755722","-28.0"
"1528653755744","8.0"
"1528653755744","42.0"
"1528653755745","73.0"
"1528653755745","101.0"
"1528653755745","127.0"
"1528653755745","149.0"
"1528653755745","168.0"
"1528653755745","183.0"
"1528653755745","194.0"
"1528653755745","202.0"
"1528653755745","206.0"
"1528653755745","204.0"
"1528653755745","198.0"
"1528653755746","190.0"
"1528653755746","180.0"
"1528653755746","168.0"
"1528653755746","154.0"
"1528653755746","139.0"
"1528653755746","121.0"
"1528653755751","103.0"
"1528653755751","83.0"
"1528653755751","63.0"
"1528653755772","41.0"
"1528653755772","19.0"
"1528653755772","-1.0"
"1528653755772","-23.0"
"1528653755772","-45.0"
"1528653755772","-67.0"
"1528653755793","-88.0"
"1528653755793","-108.0"
"1528653755793","-128.0"
"1528653755793","-147.0"
"1528653755793","-165.0"
"1528653755793","-182.0"
"1528653755793","-198.0"
"1528653755793","-214.0"
"1528653755793","-228.0"
"1528653755793","-242.0"
"1528653755814","-254.0"
"1528653755815","-266.0"
"1528653755815","-277.0"
"1528653755815","-287.0"
"1528653755816","-296.0"
"1528653755816","-304.0"
"1528653755836","-312.0"
"1528653755836","-318.0"
"1528653755837","-324.0"
"1528653755837","-329.0"
"1528653755837","-333.0"
"1528653755837","-337.0"
"1528653755837","-340.0"
"1528653755857","-342.0"
"1528653755857","-344.0"
"1528653755858","-345.0"
"1528653755858","-346.0"
"1528653755878","-345.0"
"1528653755878","-344.0"
"1528653755879","-342.0"
"1528653755879","-340.0"
"1528653755879","-338.0"
"1528653755879","-335.0"
"1528653755900","-332.0"
"1528653755900","-328.0"
"1528653755900","-325.0"
"1528653755900","-321.0"
"1528653755900","-317.0"
"1528653755900","-312.0"
"1528653755921","-308.0"
"1528653755921","-303.0"
"1528653755921","-298.0"
"1528653755922","-293.0"
"1528653755922","-288.0"
"1528653755922","-282.0"
"1528653755922","-277.0"
"1528653755922","-271.0"
"1528653755942","-266.0"
"1528653755943","-260.0"
"1528653755943","-254.0"
"1528653755964","-248.0"
"1528653755964","-243.0"
"1528653755964","-237.0"
"1528653755964","-231.0"
"1528653755964","-225.0"
"1528653755964","-219.0"
"1528653755964","-213.0"
"1528653755964","-208.0"
"1528653755964","-202.0"
"1528653755965","-196.0"
"1528653755985","-191.0"
"1528653755985","-185.0"
"1528653755985","-180.0"
"1528653755986","-174.0"
"1528653755986","-169.0"
"1528653755986","-164.0"
"1528653756006","-158.0"
"1528653756007","-153.0"
"1528653756007","-148.0"
"1528653756011","-143.0"
"1528653756011","-138.0"
"1528653756011","-134.0"
"1528653756032","-129.0"
"1528653756032","-124.0"
"1528653756032","-120.0"
"1528653756032","-115.0"
"1528653756032","-111.0"
"1528653756032","-107.0"
"1528653756052","-103.0"
"1528653756053","-99.0"
"1528653756053","-95.0"
"1528653756053","-91.0"
"1528653756053","-87.0"
"1528653756053","-83.0"
"1528653756053","-80.0"
"1528653756053","-76.0"
"1528653756053","-72.0"
"1528653756074","-68.0"
"1528653756074","-64.0"
"1528653756074","-60.0"
"1528653756094","-55.0"
"1528653756095","-51.0"
"1528653756095","-47.0"
"1528653756095","-42.0"
"1528653756095","-37.0"
"1528653756095","-32.0"
"1528653756095","-27.0"
"1528653756095","-22.0"
"1528653756095","-17.0"
"1528653756095","-11.0"
"1528653756116","-6.0"
"1528653756116","0.0"
"1528653756116","5.0"
"1528653756116","12.0"
"1528653756116","18.0"
"1528653756116","25.0"
"1528653756137","33.0"
"1528653756137","42.0"
"1528653756137","51.0"
"1528653756138","61.0"
"1528653756138","72.0"
"1528653756138","83.0"
"1528653756158","96.0"
"1528653756159","109.0"
"1528653756159","123.0"
"1528653756159","137.0"
"1528653756159","152.0"
"1528653756159","167.0"
"1528653756180","183.0"
"1528653756180","199.0"
"1528653756180","215.0"
"1528653756180","231.0"
"1528653756180","248.0"
"1528653756180","265.0"
"1528653756201","282.0"
"1528653756201","299.0"
"1528653756201","316.0"
"1528653756201","333.0"
"1528653756201","351.0"
"1528653756201","370.0"
"1528653756222","389.0"
"1528653756222","408.0"
"1528653756222","427.0"
"1528653756243","446.0"
"1528653756243","464.0"
"1528653756243","481.0"
"1528653756243","498.0"
"1528653756243","515.0"
"1528653756243","530.0"
"1528653756264","545.0"
"1528653756264","558.0"
"1528653756264","559.0"
"1528653756264","560.0"
"1528653756264","561.0"
"1528653756265","562.0"
"1528653756265","563.0"
"1528653756285","564.0"
"1528653756285","565.0"
"1528653756285","566.0"
"1528653756285","567.0"
"1528653756285","568.0"
"1528653756286","569.0"
"1528653756306","570.0"
"1528653756306","571.0"
"1528653756306","572.0"
"1528653756307","573.0"
"1528653756307","574.0"
"1528653756307","575.0"
"1528653756307","576.0"
"1528653756307","577.0"
"1528653756307","578.0"
"1528653756328","579.0"
"1528653756328","580.0"
"1528653756348","581.0"
"1528653756348","578.0"
"1528653756348","565.0"
"1528653756370","551.0"
"1528653756370","537.0"
"1528653756370","522.0"
"1528653756391","507.0"
"1528653756391","492.0"
"1528653756391","476.0"
"1528653756391","461.0"
"1528653756392","445.0"
"1528653756392","429.0"
"1528653756392","414.0"
"1528653756392","399.0"
"1528653756392","385.0"
"1528653756392","372.0"
"1528653756392","359.0"
"1528653756392","348.0"
"1528653756392","338.0"
"1528653756392","329.0"
"1528653756392","322.0"
"1528653756413","315.0"
"1528653756413","310.0"
"1528653756413","306.0"
"1528653756413","302.0"
"1528653756413","298.0"
"1528653756413","294.0"
"1528653756434","291.0"
"1528653756434","287.0"
"1528653756434","284.0"
"1528653756434","280.0"
"1528653756434","277.0"
"1528653756434","273.0"
"1528653756455","270.0"
"1528653756455","268.0"
"1528653756455","266.0"
"1528653756455","265.0"
"1528653756455","266.0"
"1528653756455","267.0"
"1528653756476","270.0"
"1528653756476","274.0"
"1528653756476","279.0"
"1528653756476","285.0"
"1528653756497","292.0"
"1528653756497","300.0"
"1528653756497","308.0"
"1528653756497","315.0"
"1528653756497","322.0"
"1528653756497","328.0"
"1528653756518","334.0"
"1528653756518","338.0"
"1528653756518","340.0"
"1528653756519","341.0"
"1528653756519","338.0"
"1528653756519","334.0"
"1528653756519","328.0"
"1528653756519","321.0"
"1528653756539","312.0"
"1528653756540","302.0"
"1528653756540","292.0"
"1528653756540","281.0"
"1528653756540","270.0"
"1528653756540","259.0"
"1528653756561","247.0"
"1528653756561","236.0"
"1528653756561","225.0"
"1528653756561","214.0"
"1528653756561","204.0"
"1528653756561","194.0"
"1528653756582","184.0"
"1528653756582","175.0"
"1528653756582","165.0"
"1528653756583","157.0"
"1528653756583","148.0"
"1528653756612","140.0"
"1528653756612","131.0"
"1528653756612","123.0"
"1528653756612","115.0"
"1528653756635","108.0"
"1528653756636","100.0"
"1528653756636","94.0"
"1528653756636","87.0"
"1528653756636","82.0"
"1528653756636","76.0"
"1528653756661","71.0"
"1528653756661","67.0"
"1528653756685","63.0"
"1528653756685","59.0"
"1528653756685","56.0"
"1528653756685","53.0"
"1528653756706","51.0"
"1528653756706","49.0"
"1528653756706","47.0"
"1528653756706","45.0"
"1528653756706","44.0"
"1528653756727","43.0"
"1528653756727","42.0"
"1528653756768","43.0"
"1528653756768","44.0"
"1528653756769","45.0"
"1528653756769","47.0"
"1528653756769","48.0"
"1528653756769","50.0"
"1528653756769","52.0"
"1528653756769","54.0"
"1528653756769","56.0"
"1528653756790","58.0"
"1528653756790","60.0"
"1528653756790","62.0"
"1528653756790","65.0"
"1528653756790","68.0"
"1528653756790","71.0"
"1528653756790","74.0"
"1528653756790","78.0"
"1528653756791","81.0"
"1528653756791","84.0"
"1528653756791","88.0"
"1528653756791","92.0"
"1528653756791","95.0"
"1528653756791","99.0"
"1528653756791","103.0"
"1528653756791","106.0"
"1528653756791","110.0"
"1528653756791","114.0"
"1528653756791","117.0"
"1528653756791","120.0"
"1528653756792","123.0"
"1528653756792","126.0"
"1528653756792","129.0"
"1528653756792","132.0"
"1528653756812","135.0"
"1528653756813","138.0"
"1528653756813","141.0"
"1528653756813","144.0"
"1528653756813","147.0"
"1528653756813","149.0"
"1528653756813","152.0"
"1528653756813","155.0"
"1528653756813","158.0"
"1528653756813","161.0"
"1528653756813","164.0"
"1528653756813","167.0"
"1528653756834","171.0"
"1528653756834","174.0"
"1528653756834","177.0"
"1528653756834","181.0"
"1528653756834","185.0"
"1528653756834","189.0"
"1528653756868","193.0"
"1528653756869","198.0"
"1528653756870","203.0"
"1528653756870","208.0"
"1528653756870","214.0"
"1528653756870","220.0"
"1528653756890","225.0"
"1528653756891","231.0"
"1528653756891","236.0"
"1528653756891","241.0"
"1528653756891","246.0"
"1528653756891","250.0"
"1528653756891","254.0"
"1528653756891","258.0"
"1528653756891","261.0"
"1528653756912","264.0"
"1528653756912","267.0"
"1528653756912","269.0"
"1528653756912","271.0"
"1528653756913","273.0"
"1528653756913","274.0"
"1528653756933","275.0"
"1528653756933","274.0"
"1528653756934","273.0"
"1528653756954","272.0"
"1528653756954","270.0"
"1528653756955","269.0"
"1528653756955","267.0"
"1528653756955","265.0"
"1528653756955","263.0"
"1528653756955","260.0"
"1528653756975","258.0"
"1528653756976","255.0"
"1528653756976","252.0"
"1528653756976","249.0"
"1528653756976","246.0"
"1528653756976","242.0"
"1528653756996","238.0"
"1528653756997","234.0"
"1528653756997","230.0"
"1528653756997","225.0"
"1528653756997","220.0"
"1528653756997","215.0"
"1528653757017","210.0"
"1528653757018","206.0"
"1528653757018","201.0"
"1528653757018","196.0"
"1528653757018","192.0"
"1528653757018","188.0"
"1528653757018","183.0"
"1528653757018","179.0"
"1528653757018","175.0"
"1528653757039","171.0"
"1528653757039","167.0"
"1528653757040","163.0"
"1528653757060","159.0"
"1528653757060","156.0"
"1528653757061","152.0"
"1528653757061","148.0"
"1528653757061","145.0"
"1528653757061","141.0"
"1528653757061","138.0"
"1528653757061","135.0"
"1528653757061","131.0"
"1528653757082","128.0"
"1528653757082","125.0"
"1528653757082","122.0"
"1528653757082","119.0"
"1528653757082","117.0"
"1528653757082","114.0"
"1528653757103","112.0"
"1528653757103","110.0"
"1528653757103","108.0"
"1528653757103","107.0"
"1528653757103","106.0"
"1528653757103","105.0"
"1528653757124","106.0"
"1528653757124","107.0"
"1528653757145","108.0"
"1528653757145","109.0"
